Name: Amygdaloidal Basalt
Type: Rock
Class: Igneous
Subclass: Basic
Particle Size: Solid
Sample No.: Ward34
Owner: JPL
Wavelength Range: All
Origin: Ward's Collection of American Rocks.  Sample locality - Mohawk Mine, Ahmeek, Keweenaw County, Michigan.
Collection Date: N/A
Description: A purplish, compact rock with innumerable amygdules of varyingsize filled largely with quartz, epidote, calcite, and chlorite.Geologic Age - Pre-Cambrian.Collected by:  Ward's Natural Science Original ASTER Spectral Library name was jpl.nicolet.rock.igneous.basic.solid.ward34.spectrum.txt
Measurement: Hemispherical reflectance
First Column: X
Second Column: Y
X Units: Wavelength (micrometers)
Y Units:Reflectance (percent)
First X Value: 15.3871
Last X Value:  0.4000
Number of X Values: 3839
Additional Information: none

15.3871	 2.0753
15.3416	 1.5986
15.2964	 1.4003
15.2514	 1.6155
15.2066	 1.9003
15.1622	 1.9115
15.1180	 1.6529
15.0740	 1.6145
15.0303	 1.6725
14.9869	 1.6853
14.9437	 1.7227
14.9008	 1.9139
14.8581	 2.1361
14.8156	 2.2582
14.7734	 2.1577
14.7314	 2.0948
14.6897	 2.0416
14.6482	 2.1076
14.6069	 2.1880
14.5659	 2.2243
14.5251	 2.3255
14.4845	 2.4382
14.4442	 2.2490
14.4041	 1.9722
14.3642	 2.0718
14.3245	 2.2163
14.2850	 2.2883
14.2458	 2.3807
14.2068	 2.4442
14.1679	 2.5512
14.1293	 2.3998
14.0909	 2.5026
14.0528	 2.7093
14.0148	 2.6594
13.9770	 2.3791
13.9394	 2.3078
13.9021	 2.3833
13.8649	 2.3855
13.8279	 2.4169
13.7911	 2.3243
13.7546	 2.2002
13.7182	 2.2113
13.6820	 2.2905
13.6460	 2.3627
13.6101	 2.4649
13.5745	 2.5386
13.5391	 2.7162
13.5038	 2.8578
13.4687	 2.8021
13.4339	 2.7656
13.3991	 2.6837
13.3646	 2.6951
13.3302	 2.8330
13.2961	 2.8489
13.2621	 2.6838
13.2282	 2.5143
13.1946	 2.5983
13.1611	 2.7008
13.1278	 2.7469
13.0946	 2.7849
13.0616	 2.9113
13.0288	 3.1037
12.9962	 3.2012
12.9637	 2.9098
12.9313	 2.7006
12.8992	 2.7173
12.8672	 2.8841
12.8353	 2.8419
12.8036	 2.7535
12.7721	 2.8905
12.7407	 2.9595
12.7095	 2.9598
12.6784	 2.9364
12.6475	 2.9529
12.6167	 2.9806
12.5861	 2.8385
12.5556	 2.7572
12.5253	 2.6860
12.4951	 2.8205
12.4651	 2.9665
12.4352	 2.9738
12.4054	 2.7453
12.3758	 2.7552
12.3463	 2.8706
12.3170	 2.9869
12.2878	 3.1048
12.2588	 3.1295
12.2299	 3.1512
12.2011	 3.2172
12.1725	 3.3024
12.1439	 3.3528
12.1156	 3.2863
12.0873	 3.3152
12.0592	 3.3657
12.0312	 3.3864
12.0034	 3.4322
11.9757	 3.5316
11.9481	 3.5764
11.9206	 3.6550
11.8933	 3.6788
11.8661	 3.7571
11.8390	 3.6838
11.8120	 3.8088
11.7852	 3.8592
11.7584	 3.7426
11.7318	 3.6555
11.7053	 3.7316
11.6790	 3.8932
11.6527	 3.8254
11.6266	 3.8039
11.6006	 3.8722
11.5747	 3.9262
11.5489	 3.9451
11.5233	 3.9786
11.4977	 4.0332
11.4723	 4.1789
11.4469	 4.2233
11.4217	 4.1622
11.3966	 3.9763
11.3716	 4.1093
11.3468	 4.3245
11.3220	 4.2839
11.2973	 4.2399
11.2728	 4.3281
11.2483	 4.2123
11.2240	 4.1120
11.1997	 4.0815
11.1756	 4.1067
11.1515	 4.3407
11.1276	 4.5406
11.1038	 4.7084
11.0801	 4.7243
11.0564	 4.7318
11.0329	 4.6613
11.0095	 4.6323
10.9862	 4.7999
10.9629	 4.8783
10.9398	 4.9084
10.9168	 4.9955
10.8938	 5.0578
10.8710	 5.1632
10.8483	 5.1878
10.8256	 5.2712
10.8031	 5.2986
10.7806	 5.2327
10.7582	 5.2420
10.7360	 5.2542
10.7138	 5.2062
10.6917	 5.2531
10.6697	 5.3681
10.6478	 5.5885
10.6260	 5.6214
10.6042	 5.6483
10.5826	 5.6861
10.5610	 5.7233
10.5396	 5.8113
10.5182	 5.8986
10.4969	 5.9446
10.4757	 5.9754
10.4546	 6.0783
10.4335	 6.0954
10.4126	 6.0755
10.3917	 6.2338
10.3709	 6.4416
10.3502	 6.4543
10.3296	 6.4877
10.3091	 6.5289
10.2886	 6.5714
10.2683	 6.7162
10.2480	 6.7809
10.2277	 6.7978
10.2076	 6.9696
10.1876	 7.1681
10.1676	 7.3674
10.1477	 7.5060
10.1279	 7.5356
10.1081	 7.6602
10.0885	 7.7578
10.0689	 7.8447
10.0494	 7.9220
10.0299	 8.0120
10.0106	 8.2184
 9.9913	 8.4208
 9.9720	 8.6005
 9.9529	 8.7831
 9.9338	 8.8471
 9.9148	 8.9806
 9.8959	 9.1581
 9.8771	 9.1436
 9.8583	 9.2608
 9.8396	 9.4477
 9.8210	 9.5470
 9.8024	 9.5891
 9.7839	 9.6712
 9.7655	 9.7830
 9.7471	 9.9765
 9.7288	10.1114
 9.7106	10.1495
 9.6925	10.2624
 9.6744	10.3175
 9.6564	10.2018
 9.6384	10.3432
 9.6205	10.4910
 9.6027	10.3316
 9.5850	10.2344
 9.5673	10.2023
 9.5497	10.1333
 9.5321	10.1588
 9.5146	10.2134
 9.4972	10.2811
 9.4798	10.1814
 9.4625	 9.9655
 9.4453	 9.7978
 9.4281	 9.6985
 9.4110	 9.3819
 9.3940	 9.1735
 9.3770	 9.0141
 9.3600	 8.9556
 9.3432	 8.6804
 9.3264	 8.3576
 9.3096	 8.3513
 9.2930	 8.3049
 9.2763	 8.1576
 9.2598	 8.2302
 9.2432	 8.2522
 9.2268	 8.1443
 9.2104	 7.9653
 9.1941	 7.8580
 9.1778	 7.9359
 9.1616	 7.9432
 9.1454	 7.9292
 9.1293	 7.9774
 9.1133	 7.9055
 9.0973	 7.8079
 9.0814	 7.7172
 9.0655	 7.7388
 9.0497	 7.7571
 9.0339	 7.7573
 9.0182	 7.7534
 9.0025	 7.6428
 8.9870	 7.7910
 8.9714	 7.9501
 8.9559	 7.8600
 8.9405	 7.9182
 8.9251	 7.9389
 8.9097	 7.9238
 8.8945	 7.9669
 8.8792	 8.0609
 8.8641	 7.9181
 8.8489	 7.9390
 8.8338	 8.2058
 8.8188	 8.2382
 8.8039	 8.1498
 8.7889	 8.1110
 8.7741	 8.1521
 8.7592	 8.1844
 8.7445	 8.1916
 8.7297	 8.1384
 8.7151	 8.1008
 8.7005	 8.0556
 8.6859	 8.0489
 8.6714	 8.0252
 8.6569	 8.0074
 8.6425	 8.0082
 8.6281	 8.1051
 8.6137	 7.9347
 8.5994	 7.5315
 8.5852	 7.4722
 8.5710	 7.5963
 8.5569	 7.6631
 8.5428	 7.5891
 8.5287	 7.3168
 8.5147	 7.2347
 8.5008	 7.2191
 8.4869	 7.2238
 8.4730	 7.0463
 8.4592	 6.8177
 8.4454	 6.7111
 8.4316	 6.6528
 8.4180	 6.4905
 8.4043	 6.2360
 8.3907	 6.1136
 8.3772	 6.1085
 8.3637	 6.0483
 8.3502	 5.8852
 8.3368	 5.7788
 8.3234	 5.7180
 8.3100	 5.7747
 8.2967	 5.6501
 8.2835	 5.5085
 8.2703	 5.6644
 8.2571	 5.6329
 8.2440	 5.2979
 8.2309	 5.0862
 8.2179	 4.9794
 8.2049	 4.7288
 8.1919	 4.4616
 8.1790	 4.2459
 8.1661	 4.1551
 8.1532	 4.0535
 8.1404	 3.8660
 8.1277	 3.6621
 8.1150	 3.5063
 8.1023	 3.4928
 8.0897	 3.4156
 8.0770	 3.2447
 8.0645	 3.0851
 8.0520	 2.9119
 8.0395	 2.8412
 8.0270	 2.8095
 8.0146	 2.7518
 8.0023	 2.6594
 7.9899	 2.6966
 7.9776	 2.5836
 7.9654	 2.5575
 7.9532	 2.5584
 7.9410	 2.4663
 7.9288	 2.3914
 7.9167	 2.3289
 7.9047	 2.3301
 7.8926	 2.3851
 7.8807	 2.5166
 7.8687	 2.5933
 7.8568	 2.4219
 7.8449	 2.3256
 7.8330	 2.3197
 7.8212	 2.3251
 7.8094	 2.2760
 7.7977	 2.1951
 7.7860	 2.1437
 7.7743	 2.1932
 7.7627	 2.2453
 7.7511	 2.3051
 7.7395	 2.2534
 7.7280	 2.2314
 7.7165	 2.1861
 7.7050	 2.0509
 7.6936	 2.0460
 7.6822	 2.0781
 7.6708	 2.0555
 7.6595	 2.1078
 7.6482	 2.1193
 7.6369	 2.0810
 7.6257	 1.9763
 7.6145	 1.8471
 7.6033	 1.9155
 7.5922	 2.0061
 7.5811	 2.0336
 7.5700	 2.0006
 7.5590	 1.9662
 7.5480	 1.9804
 7.5370	 1.9248
 7.5261	 1.8752
 7.5152	 1.9075
 7.5043	 2.0067
 7.4935	 2.0671
 7.4826	 2.0172
 7.4718	 2.0779
 7.4611	 2.1366
 7.4504	 2.1437
 7.4397	 2.2327
 7.4290	 2.2624
 7.4184	 2.1092
 7.4078	 2.0300
 7.3972	 2.0543
 7.3867	 2.1053
 7.3762	 2.1215
 7.3657	 2.0232
 7.3553	 2.0870
 7.3449	 2.1782
 7.3345	 2.0653
 7.3241	 2.0880
 7.3138	 2.1622
 7.3035	 2.1211
 7.2932	 2.0511
 7.2830	 2.1248
 7.2727	 2.2216
 7.2626	 2.2468
 7.2524	 2.1516
 7.2423	 2.1105
 7.2322	 2.1938
 7.2221	 2.2894
 7.2120	 2.4001
 7.2020	 2.4342
 7.1921	 2.3498
 7.1821	 2.3766
 7.1722	 2.4314
 7.1623	 2.3754
 7.1524	 2.4385
 7.1425	 2.5003
 7.1327	 2.4756
 7.1229	 2.5358
 7.1131	 2.5742
 7.1034	 2.4040
 7.0937	 2.3031
 7.0840	 2.3654
 7.0743	 2.4254
 7.0647	 2.4720
 7.0551	 2.3905
 7.0455	 2.2559
 7.0359	 2.1952
 7.0264	 2.2232
 7.0169	 2.2269
 7.0074	 2.2242
 6.9979	 2.1680
 6.9885	 2.2919
 6.9791	 2.4521
 6.9697	 2.3936
 6.9604	 2.3551
 6.9510	 2.2723
 6.9417	 2.3077
 6.9324	 2.3983
 6.9232	 2.4447
 6.9140	 2.4859
 6.9047	 2.5689
 6.8956	 2.5627
 6.8864	 2.6018
 6.8773	 2.6751
 6.8682	 2.6814
 6.8591	 2.7410
 6.8500	 2.8275
 6.8410	 2.8107
 6.8320	 2.8000
 6.8230	 2.8832
 6.8140	 2.8711
 6.8051	 2.9080
 6.7962	 3.0817
 6.7873	 3.1808
 6.7784	 3.1184
 6.7695	 3.2004
 6.7607	 3.2571
 6.7519	 3.2116
 6.7431	 3.2725
 6.7344	 3.4276
 6.7256	 3.5108
 6.7169	 3.5326
 6.7082	 3.5149
 6.6996	 3.5378
 6.6909	 3.5632
 6.6823	 3.5780
 6.6737	 3.6232
 6.6651	 3.5995
 6.6566	 3.5925
 6.6480	 3.6227
 6.6395	 3.6623
 6.6310	 3.6428
 6.6226	 3.5695
 6.6141	 3.6605
 6.6057	 3.7399
 6.5973	 3.7234
 6.5889	 3.7827
 6.5805	 3.8900
 6.5722	 3.8930
 6.5639	 3.7814
 6.5556	 3.7267
 6.5473	 3.7398
 6.5390	 3.7595
 6.5308	 3.7279
 6.5226	 3.6944
 6.5144	 3.6240
 6.5062	 3.5628
 6.4981	 3.7050
 6.4900	 3.7438
 6.4818	 3.6083
 6.4737	 3.5511
 6.4657	 3.4776
 6.4576	 3.4774
 6.4496	 3.5251
 6.4416	 3.5759
 6.4336	 3.5708
 6.4256	 3.4832
 6.4177	 3.5371
 6.4097	 3.4939
 6.4018	 3.3498
 6.3939	 3.3772
 6.3860	 3.3816
 6.3782	 3.3436
 6.3704	 3.4065
 6.3625	 3.4243
 6.3547	 3.4682
 6.3470	 3.4745
 6.3392	 3.3494
 6.3315	 3.2616
 6.3237	 3.2353
 6.3160	 3.1607
 6.3083	 3.1655
 6.3007	 3.1997
 6.2930	 3.1548
 6.2854	 3.0922
 6.2778	 3.0277
 6.2702	 3.0650
 6.2626	 3.0771
 6.2551	 3.0359
 6.2476	 2.9539
 6.2400	 2.9256
 6.2325	 3.0384
 6.2251	 3.0613
 6.2176	 3.0070
 6.2101	 2.9679
 6.2027	 2.9179
 6.1953	 2.8610
 6.1879	 2.7698
 6.1805	 2.6783
 6.1732	 2.6376
 6.1658	 2.6987
 6.1585	 2.7703
 6.1512	 2.8458
 6.1439	 2.8256
 6.1367	 2.7011
 6.1294	 2.6073
 6.1222	 2.6857
 6.1149	 2.7920
 6.1077	 2.7813
 6.1006	 2.6603
 6.0934	 2.6904
 6.0862	 2.8127
 6.0791	 2.8700
 6.0720	 2.8156
 6.0649	 2.7165
 6.0578	 2.7962
 6.0507	 2.8953
 6.0437	 2.8405
 6.0366	 2.7905
 6.0296	 2.8037
 6.0226	 2.8118
 6.0156	 2.8404
 6.0087	 2.8698
 6.0017	 2.8725
 5.9948	 2.9073
 5.9878	 2.9999
 5.9809	 3.0343
 5.9740	 3.0707
 5.9672	 3.0342
 5.9603	 3.0113
 5.9535	 3.0770
 5.9466	 3.2303
 5.9398	 3.3281
 5.9330	 3.2596
 5.9262	 3.2530
 5.9195	 3.3122
 5.9127	 3.3608
 5.9060	 3.4236
 5.8993	 3.5291
 5.8926	 3.4729
 5.8859	 3.4706
 5.8792	 3.6137
 5.8726	 3.7469
 5.8659	 3.7481
 5.8593	 3.6824
 5.8527	 3.7025
 5.8461	 3.8024
 5.8395	 3.8512
 5.8329	 3.8308
 5.8264	 3.8973
 5.8198	 3.9030
 5.8133	 3.8662
 5.8068	 3.9358
 5.8003	 3.9781
 5.7938	 3.9949
 5.7874	 4.0385
 5.7809	 4.0828
 5.7745	 4.1535
 5.7680	 4.2533
 5.7616	 4.2730
 5.7552	 4.2288
 5.7489	 4.3114
 5.7425	 4.2751
 5.7361	 4.1694
 5.7298	 4.2387
 5.7235	 4.3210
 5.7172	 4.3602
 5.7109	 4.4119
 5.7046	 4.4013
 5.6983	 4.4124
 5.6921	 4.4330
 5.6858	 4.4559
 5.6796	 4.5081
 5.6734	 4.5052
 5.6672	 4.5087
 5.6610	 4.5720
 5.6548	 4.5838
 5.6487	 4.6400
 5.6425	 4.7637
 5.6364	 4.8041
 5.6303	 4.7288
 5.6242	 4.6414
 5.6181	 4.6342
 5.6120	 4.6796
 5.6059	 4.7843
 5.5999	 4.8229
 5.5938	 4.8586
 5.5878	 4.8802
 5.5818	 4.9723
 5.5758	 5.0199
 5.5698	 4.9163
 5.5638	 4.8804
 5.5578	 4.9462
 5.5519	 5.0317
 5.5460	 5.0524
 5.5400	 5.0669
 5.5341	 5.1260
 5.5282	 5.1456
 5.5223	 5.1329
 5.5164	 5.1155
 5.5106	 5.1158
 5.5047	 5.1509
 5.4989	 5.2119
 5.4931	 5.3153
 5.4873	 5.2937
 5.4815	 5.2076
 5.4757	 5.2721
 5.4699	 5.4458
 5.4641	 5.5326
 5.4584	 5.4887
 5.4527	 5.4229
 5.4469	 5.4175
 5.4412	 5.3902
 5.4355	 5.3685
 5.4298	 5.4327
 5.4241	 5.5181
 5.4185	 5.5009
 5.4128	 5.5209
 5.4072	 5.6145
 5.4015	 5.6159
 5.3959	 5.5536
 5.3903	 5.5782
 5.3847	 5.5594
 5.3791	 5.5504
 5.3735	 5.6205
 5.3680	 5.6811
 5.3624	 5.6545
 5.3569	 5.5885
 5.3514	 5.6280
 5.3458	 5.7010
 5.3403	 5.7062
 5.3348	 5.7008
 5.3294	 5.6324
 5.3239	 5.5904
 5.3184	 5.7049
 5.3130	 5.7959
 5.3075	 5.8529
 5.3021	 5.8939
 5.2967	 5.8162
 5.2913	 5.7890
 5.2859	 5.8818
 5.2805	 5.9554
 5.2751	 6.0150
 5.2698	 6.0524
 5.2644	 6.0712
 5.2591	 6.0622
 5.2538	 6.1737
 5.2485	 6.2749
 5.2431	 6.2937
 5.2378	 6.2999
 5.2326	 6.3664
 5.2273	 6.4536
 5.2220	 6.4353
 5.2168	 6.4343
 5.2115	 6.4919
 5.2063	 6.5650
 5.2011	 6.6009
 5.1959	 6.6660
 5.1907	 6.8047
 5.1855	 6.7959
 5.1803	 6.8224
 5.1751	 6.8954
 5.1700	 6.9127
 5.1648	 6.9770
 5.1597	 7.0851
 5.1545	 7.1319
 5.1494	 7.0853
 5.1443	 7.0820
 5.1392	 7.1405
 5.1341	 7.2505
 5.1291	 7.3058
 5.1240	 7.3285
 5.1189	 7.3362
 5.1139	 7.3212
 5.1088	 7.3289
 5.1038	 7.4272
 5.0988	 7.4461
 5.0938	 7.4312
 5.0888	 7.4726
 5.0838	 7.4859
 5.0788	 7.5109
 5.0738	 7.5715
 5.0689	 7.5843
 5.0639	 7.6105
 5.0590	 7.7035
 5.0541	 7.7788
 5.0491	 7.7536
 5.0442	 7.6329
 5.0393	 7.6089
 5.0344	 7.7014
 5.0296	 7.7336
 5.0247	 7.7121
 5.0198	 7.7204
 5.0150	 7.7268
 5.0101	 7.7683
 5.0053	 7.8275
 5.0004	 7.7388
 4.9956	 7.7607
 4.9908	 7.9054
 4.9860	 7.9920
 4.9812	 8.0025
 4.9765	 7.9690
 4.9717	 7.9347
 4.9669	 7.9509
 4.9622	 8.0198
 4.9574	 8.1272
 4.9527	 8.1297
 4.9480	 8.0593
 4.9432	 8.0589
 4.9385	 8.1779
 4.9338	 8.2486
 4.9291	 8.2881
 4.9245	 8.3649
 4.9198	 8.4362
 4.9151	 8.4922
 4.9105	 8.5456
 4.9058	 8.5297
 4.9012	 8.5849
 4.8966	 8.6954
 4.8919	 8.6234
 4.8873	 8.5680
 4.8827	 8.6533
 4.8781	 8.7190
 4.8736	 8.7087
 4.8690	 8.6900
 4.8644	 8.7170
 4.8599	 8.7928
 4.8553	 8.9432
 4.8508	 8.9704
 4.8462	 8.9036
 4.8417	 8.9148
 4.8372	 8.9927
 4.8327	 8.9951
 4.8282	 8.9728
 4.8237	 9.0089
 4.8192	 9.0348
 4.8147	 8.9711
 4.8103	 8.9674
 4.8058	 8.9676
 4.8014	 9.0022
 4.7969	 9.0682
 4.7925	 9.1259
 4.7881	 9.0871
 4.7836	 9.1044
 4.7792	 9.1049
 4.7748	 8.9740
 4.7704	 9.0193
 4.7660	 9.1394
 4.7617	 9.1181
 4.7573	 9.0760
 4.7530	 9.0908
 4.7486	 9.2268
 4.7443	 9.2711
 4.7399	 9.2335
 4.7356	 9.2241
 4.7313	 9.2588
 4.7270	 9.1976
 4.7226	 9.1650
 4.7184	 9.2564
 4.7141	 9.3523
 4.7098	 9.2917
 4.7055	 9.2742
 4.7012	 9.4253
 4.6970	 9.4635
 4.6927	 9.4027
 4.6885	 9.4060
 4.6842	 9.5359
 4.6800	 9.5045
 4.6758	 9.4491
 4.6716	 9.4982
 4.6674	 9.5305
 4.6632	 9.5244
 4.6590	 9.5061
 4.6548	 9.5122
 4.6506	 9.5644
 4.6465	 9.6009
 4.6423	 9.6496
 4.6382	 9.7945
 4.6340	 9.8067
 4.6299	 9.7698
 4.6258	 9.7523
 4.6216	 9.7412
 4.6175	 9.8084
 4.6134	 9.8939
 4.6093	 9.8935
 4.6052	 9.8626
 4.6011	 9.9006
 4.5971	 9.8792
 4.5930	 9.9591
 4.5889	10.0311
 4.5849	10.0910
 4.5808	10.0956
 4.5768	10.0824
 4.5727	10.0344
 4.5687	 9.9848
 4.5647	10.0680
 4.5607	10.1401
 4.5567	10.1262
 4.5526	10.1183
 4.5487	10.1067
 4.5447	10.1429
 4.5407	10.2174
 4.5367	10.1917
 4.5328	10.3028
 4.5288	10.4201
 4.5248	10.4045
 4.5209	10.3774
 4.5170	10.3483
 4.5130	10.3422
 4.5091	10.3729
 4.5052	10.4287
 4.5013	10.4336
 4.4974	10.5029
 4.4935	10.5543
 4.4896	10.6169
 4.4857	10.6101
 4.4818	10.6631
 4.4779	10.6851
 4.4741	10.6415
 4.4702	10.7019
 4.4664	10.7328
 4.4625	10.7579
 4.4587	10.7576
 4.4549	10.7475
 4.4510	10.7211
 4.4472	10.7715
 4.4434	10.8272
 4.4396	10.7652
 4.4358	10.8138
 4.4320	10.8870
 4.4282	10.9261
 4.4245	10.9569
 4.4207	11.0015
 4.4169	10.9980
 4.4132	11.0718
 4.4094	11.1574
 4.4057	11.1093
 4.4019	11.1588
 4.3982	11.2645
 4.3945	11.3605
 4.3907	11.3067
 4.3870	11.1780
 4.3833	11.1854
 4.3796	11.2753
 4.3759	11.4125
 4.3722	11.4775
 4.3685	11.4589
 4.3649	11.4922
 4.3612	11.4705
 4.3575	11.4814
 4.3539	11.5063
 4.3502	11.5608
 4.3466	11.5782
 4.3429	11.5136
 4.3393	11.6182
 4.3357	11.6514
 4.3320	11.6175
 4.3284	11.7324
 4.3248	11.8426
 4.3212	11.8133
 4.3176	11.7512
 4.3140	11.7864
 4.3105	11.7406
 4.3069	11.7052
 4.3033	11.7400
 4.2997	11.6989
 4.2962	11.6930
 4.2926	11.7477
 4.2890	11.7635
 4.2855	11.8051
 4.2820	11.9195
 4.2784	11.9417
 4.2749	11.8558
 4.2714	11.9415
 4.2679	12.0555
 4.2644	12.1094
 4.2609	12.1979
 4.2574	12.2812
 4.2539	12.2807
 4.2504	12.2443
 4.2469	12.1047
 4.2434	12.0523
 4.2400	12.0566
 4.2365	12.1080
 4.2330	12.0109
 4.2296	12.0095
 4.2261	12.1841
 4.2227	12.2964
 4.2193	12.3585
 4.2158	12.4700
 4.2124	12.5930
 4.2090	12.6734
 4.2056	12.7204
 4.2022	12.7189
 4.1988	12.8115
 4.1954	12.9269
 4.1920	12.9492
 4.1886	12.9271
 4.1852	12.9832
 4.1818	13.0437
 4.1785	13.0423
 4.1751	12.9664
 4.1717	12.9009
 4.1684	12.9513
 4.1650	13.1404
 4.1617	13.2567
 4.1584	13.1883
 4.1550	13.1543
 4.1517	13.1900
 4.1484	13.2920
 4.1451	13.3508
 4.1418	13.3213
 4.1384	13.3199
 4.1351	13.3522
 4.1319	13.3899
 4.1286	13.4274
 4.1253	13.4565
 4.1220	13.3930
 4.1187	13.3776
 4.1155	13.5397
 4.1122	13.5953
 4.1089	13.6083
 4.1057	13.6135
 4.1024	13.6076
 4.0992	13.7238
 4.0959	13.7275
 4.0927	13.6047
 4.0895	13.5650
 4.0863	13.5600
 4.0830	13.5815
 4.0798	13.6647
 4.0766	13.7463
 4.0734	13.8671
 4.0702	13.9193
 4.0670	13.8477
 4.0639	13.7727
 4.0607	13.8587
 4.0575	13.9656
 4.0543	13.9640
 4.0511	14.0799
 4.0480	14.1022
 4.0448	14.0035
 4.0417	14.0503
 4.0385	14.1196
 4.0354	14.0968
 4.0323	14.0454
 4.0291	14.0690
 4.0260	14.0445
 4.0229	13.9695
 4.0197	14.1180
 4.0166	14.2705
 4.0135	14.2230
 4.0104	14.1877
 4.0073	14.3028
 4.0042	14.3217
 4.0011	14.3163
 3.9981	14.3382
 3.9950	14.3464
 3.9919	14.2726
 3.9888	14.2766
 3.9857	14.2579
 3.9827	14.1864
 3.9796	14.2377
 3.9766	14.3318
 3.9735	14.3881
 3.9705	14.3123
 3.9675	14.3116
 3.9644	14.4119
 3.9614	14.4608
 3.9584	14.3965
 3.9554	14.3056
 3.9523	14.3280
 3.9493	14.3945
 3.9463	14.4402
 3.9433	14.4521
 3.9403	14.4405
 3.9373	14.4579
 3.9343	14.4172
 3.9314	14.3175
 3.9284	14.3387
 3.9254	14.4404
 3.9224	14.3925
 3.9195	14.3386
 3.9165	14.4713
 3.9136	14.5760
 3.9106	14.4966
 3.9077	14.3968
 3.9047	14.4374
 3.9018	14.5146
 3.8988	14.4860
 3.8959	14.5363
 3.8930	14.5433
 3.8901	14.5159
 3.8872	14.4487
 3.8842	14.5025
 3.8813	14.5500
 3.8784	14.5135
 3.8755	14.5967
 3.8726	14.5564
 3.8697	14.4524
 3.8669	14.5072
 3.8640	14.3792
 3.8611	14.2564
 3.8582	14.2936
 3.8554	14.4986
 3.8525	14.6403
 3.8496	14.5799
 3.8468	14.5346
 3.8439	14.4869
 3.8411	14.4414
 3.8382	14.4187
 3.8354	14.4204
 3.8326	14.3837
 3.8297	14.3388
 3.8269	14.4060
 3.8241	14.4262
 3.8213	14.3868
 3.8185	14.3910
 3.8157	14.3999
 3.8128	14.3336
 3.8100	14.3233
 3.8072	14.2515
 3.8045	14.1722
 3.8017	14.1881
 3.7989	14.2301
 3.7961	14.1548
 3.7933	14.0286
 3.7906	13.9721
 3.7878	13.9977
 3.7850	14.1914
 3.7822	14.3612
 3.7795	14.4089
 3.7767	14.2996
 3.7740	14.1930
 3.7713	14.1206
 3.7685	14.0401
 3.7658	14.0557
 3.7630	14.0102
 3.7603	13.9334
 3.7576	14.0289
 3.7549	14.0653
 3.7521	13.9592
 3.7494	13.9107
 3.7467	13.9488
 3.7440	13.9001
 3.7413	13.8587
 3.7386	13.7750
 3.7359	13.7586
 3.7332	13.8546
 3.7306	13.8220
 3.7279	13.6780
 3.7252	13.6671
 3.7225	13.6106
 3.7199	13.6265
 3.7172	13.8033
 3.7145	13.7559
 3.7119	13.7061
 3.7092	13.6489
 3.7066	13.4486
 3.7039	13.3961
 3.7013	13.4920
 3.6986	13.4564
 3.6960	13.4155
 3.6934	13.3616
 3.6907	13.2976
 3.6881	13.3029
 3.6855	13.1688
 3.6829	13.1512
 3.6803	13.2537
 3.6776	13.2293
 3.6750	13.0708
 3.6724	13.0759
 3.6698	13.1980
 3.6672	13.2033
 3.6646	13.1503
 3.6620	13.0611
 3.6595	12.9043
 3.6569	12.8013
 3.6543	12.7401
 3.6517	12.8071
 3.6492	12.8449
 3.6466	12.7288
 3.6440	12.6950
 3.6415	12.7602
 3.6389	12.7742
 3.6364	12.6684
 3.6338	12.5188
 3.6313	12.5296
 3.6287	12.5896
 3.6262	12.5767
 3.6237	12.4410
 3.6211	12.3875
 3.6186	12.5172
 3.6161	12.5149
 3.6136	12.3740
 3.6111	12.2433
 3.6085	12.2175
 3.6060	12.2173
 3.6035	12.2709
 3.6010	12.3021
 3.5985	12.2778
 3.5960	12.2050
 3.5935	12.1210
 3.5910	12.0144
 3.5886	11.9812
 3.5861	11.8688
 3.5836	11.7961
 3.5811	11.8603
 3.5787	11.7815
 3.5762	11.7316
 3.5737	11.6491
 3.5713	11.5061
 3.5688	11.5825
 3.5663	11.5895
 3.5639	11.5142
 3.5614	11.4702
 3.5590	11.5362
 3.5566	11.5836
 3.5541	11.4907
 3.5517	11.3203
 3.5493	11.2220
 3.5468	11.1302
 3.5444	11.0535
 3.5420	11.0271
 3.5396	10.9581
 3.5372	10.8543
 3.5347	10.8027
 3.5323	10.8915
 3.5299	10.9135
 3.5275	10.8672
 3.5251	10.8392
 3.5227	10.6393
 3.5203	10.5269
 3.5180	10.6276
 3.5156	10.5077
 3.5132	10.4055
 3.5108	10.2674
 3.5084	10.0392
 3.5061	10.0774
 3.5037	10.0292
 3.5013	 9.9159
 3.4990	 9.8620
 3.4966	 9.8077
 3.4943	 9.7622
 3.4919	 9.8344
 3.4895	 9.8394
 3.4872	 9.8008
 3.4849	 9.8510
 3.4825	 9.8739
 3.4802	 9.8900
 3.4778	 9.8521
 3.4755	 9.7493
 3.4732	 9.6950
 3.4709	 9.7060
 3.4685	 9.7345
 3.4662	 9.5951
 3.4639	 9.4840
 3.4616	 9.5449
 3.4593	 9.5431
 3.4570	 9.4777
 3.4547	 9.5124
 3.4524	 9.4129
 3.4501	 9.2537
 3.4478	 9.4501
 3.4455	 9.6400
 3.4432	 9.4813
 3.4409	 9.3820
 3.4386	 9.1901
 3.4364	 8.9862
 3.4341	 9.0159
 3.4318	 9.0332
 3.4295	 8.9633
 3.4273	 8.9999
 3.4250	 8.9092
 3.4228	 8.8861
 3.4205	 8.9436
 3.4182	 8.7522
 3.4160	 8.7189
 3.4137	 8.6352
 3.4115	 8.5626
 3.4093	 8.7471
 3.4070	 8.7546
 3.4048	 8.6222
 3.4025	 8.6359
 3.4003	 8.5990
 3.3981	 8.5866
 3.3958	 8.3973
 3.3936	 8.1942
 3.3914	 8.2503
 3.3892	 8.3613
 3.3870	 8.2497
 3.3848	 8.2386
 3.3826	 8.2333
 3.3804	 8.0901
 3.3782	 8.1475
 3.3760	 8.4805
 3.3738	 8.5558
 3.3716	 8.1750
 3.3694	 8.1412
 3.3672	 8.0908
 3.3650	 7.9228
 3.3628	 7.9150
 3.3606	 8.0532
 3.3585	 8.1599
 3.3563	 8.0599
 3.3541	 7.9040
 3.3520	 7.9140
 3.3498	 7.8872
 3.3476	 7.8962
 3.3455	 7.9462
 3.3433	 7.9013
 3.3411	 7.8640
 3.3390	 7.8820
 3.3369	 8.0306
 3.3347	 8.0156
 3.3326	 7.8485
 3.3304	 7.7447
 3.3283	 7.7440
 3.3262	 7.8776
 3.3240	 7.8688
 3.3219	 7.7080
 3.3198	 7.6558
 3.3176	 7.5618
 3.3155	 7.5518
 3.3134	 7.7454
 3.3113	 7.9018
 3.3092	 7.8826
 3.3071	 7.5685
 3.3049	 7.1874
 3.3028	 7.1215
 3.3007	 7.1712
 3.2986	 7.2406
 3.2965	 7.1951
 3.2944	 7.2052
 3.2924	 7.3499
 3.2903	 7.3420
 3.2882	 7.2769
 3.2861	 7.2574
 3.2840	 6.9368
 3.2819	 6.8202
 3.2799	 6.9925
 3.2778	 7.1123
 3.2757	 6.9441
 3.2736	 6.8325
 3.2716	 6.9141
 3.2695	 6.9171
 3.2675	 6.8435
 3.2654	 6.7715
 3.2634	 6.6517
 3.2613	 6.7747
 3.2593	 6.8120
 3.2572	 6.6754
 3.2552	 6.8704
 3.2531	 6.8110
 3.2511	 6.4356
 3.2490	 6.2423
 3.2470	 6.4099
 3.2450	 6.3690
 3.2429	 6.1502
 3.2409	 6.2710
 3.2389	 6.4615
 3.2369	 6.4078
 3.2348	 6.3273
 3.2328	 6.4385
 3.2308	 6.4303
 3.2288	 6.3595
 3.2268	 6.1201
 3.2248	 5.8832
 3.2228	 5.7546
 3.2208	 5.6248
 3.2188	 5.7655
 3.2168	 6.0381
 3.2148	 5.9085
 3.2128	 5.8020
 3.2108	 5.8260
 3.2088	 5.9689
 3.2068	 6.1598
 3.2049	 5.8289
 3.2029	 5.4077
 3.2009	 5.4575
 3.1989	 5.7559
 3.1970	 5.8085
 3.1950	 5.7103
 3.1930	 5.6821
 3.1911	 5.5020
 3.1891	 5.2447
 3.1871	 5.2278
 3.1852	 5.3922
 3.1832	 5.5489
 3.1813	 5.6018
 3.1793	 5.2646
 3.1774	 5.1474
 3.1754	 5.1922
 3.1735	 5.3413
 3.1715	 5.4253
 3.1696	 5.4311
 3.1677	 5.3437
 3.1657	 5.2450
 3.1638	 4.9250
 3.1619	 5.1217
 3.1599	 5.1373
 3.1580	 4.8682
 3.1561	 4.8941
 3.1542	 5.0804
 3.1523	 5.1144
 3.1503	 5.0485
 3.1484	 5.0809
 3.1465	 5.0949
 3.1446	 5.1038
 3.1427	 4.8312
 3.1408	 4.5481
 3.1389	 4.4723
 3.1370	 4.5071
 3.1351	 4.6932
 3.1332	 4.8420
 3.1313	 4.3995
 3.1294	 4.2715
 3.1275	 4.5100
 3.1257	 4.6331
 3.1238	 4.3980
 3.1219	 4.3139
 3.1200	 4.4328
 3.1181	 4.5391
 3.1163	 4.4960
 3.1144	 4.5284
 3.1125	 4.3670
 3.1107	 4.1437
 3.1088	 4.0214
 3.1069	 4.1418
 3.1051	 4.2552
 3.1032	 4.0051
 3.1014	 3.9378
 3.0995	 4.1674
 3.0976	 4.3036
 3.0958	 4.0443
 3.0940	 4.1094
 3.0921	 4.2113
 3.0903	 4.2642
 3.0884	 4.2689
 3.0866	 4.1608
 3.0848	 3.9067
 3.0829	 3.7884
 3.0811	 4.0544
 3.0793	 4.2531
 3.0774	 4.0577
 3.0756	 3.9931
 3.0738	 4.0782
 3.0720	 3.9127
 3.0701	 3.7600
 3.0683	 3.8103
 3.0665	 4.0077
 3.0647	 4.0550
 3.0629	 3.9428
 3.0611	 3.8642
 3.0593	 3.9918
 3.0575	 3.6874
 3.0557	 3.7532
 3.0539	 3.9986
 3.0521	 4.3032
 3.0503	 4.2422
 3.0485	 4.2457
 3.0467	 4.0888
 3.0449	 3.8864
 3.0431	 3.9190
 3.0413	 3.8419
 3.0396	 3.9151
 3.0378	 3.7603
 3.0360	 3.6647
 3.0342	 3.8916
 3.0324	 3.8878
 3.0307	 3.5064
 3.0289	 3.4991
 3.0271	 3.6193
 3.0254	 3.5708
 3.0236	 3.6090
 3.0218	 3.8784
 3.0201	 3.7586
 3.0183	 3.8097
 3.0166	 3.9752
 3.0148	 3.8338
 3.0130	 3.6667
 3.0113	 3.5134
 3.0096	 3.6574
 3.0078	 3.6556
 3.0061	 3.5337
 3.0043	 3.4615
 3.0026	 3.6151
 3.0008	 3.9108
 2.9991	 3.8888
 2.9974	 3.5606
 2.9956	 3.4246
 2.9939	 3.4363
 2.9922	 3.6141
 2.9905	 3.6630
 2.9887	 3.5620
 2.9870	 3.5152
 2.9853	 3.6504
 2.9836	 3.8916
 2.9819	 3.8543
 2.9802	 3.7294
 2.9784	 3.8174
 2.9767	 3.7570
 2.9750	 3.3522
 2.9733	 3.2380
 2.9716	 3.4880
 2.9699	 3.6569
 2.9682	 3.3960
 2.9665	 3.0176
 2.9648	 3.1072
 2.9631	 3.2273
 2.9614	 3.4015
 2.9597	 3.7824
 2.9581	 3.6587
 2.9564	 3.4544
 2.9547	 3.6208
 2.9530	 3.5412
 2.9513	 3.2378
 2.9496	 3.0225
 2.9480	 3.0665
 2.9463	 3.6306
 2.9446	 3.8141
 2.9429	 3.5000
 2.9413	 3.3880
 2.9396	 3.3503
 2.9379	 3.3785
 2.9363	 3.4946
 2.9346	 3.5265
 2.9330	 3.5770
 2.9313	 3.4550
 2.9296	 3.4661
 2.9280	 3.7018
 2.9263	 3.8727
 2.9247	 3.7979
 2.9230	 3.5262
 2.9214	 3.4957
 2.9197	 2.8506
 2.9181	 2.3844
 2.9165	 2.7694
 2.9148	 3.4058
 2.9132	 3.7473
 2.9116	 3.7083
 2.9099	 4.0556
 2.9083	 4.0595
 2.9067	 3.6475
 2.9050	 3.6012
 2.9034	 3.7415
 2.9018	 3.4790
 2.9002	 3.7180
 2.8985	 3.8369
 2.8969	 3.4021
 2.8953	 3.3730
 2.8937	 3.0728
 2.8921	 2.7515
 2.8905	 3.2965
 2.8888	 3.7645
 2.8872	 3.7497
 2.8856	 3.6316
 2.8840	 3.5804
 2.8824	 3.9007
 2.8808	 3.8676
 2.8792	 3.4886
 2.8776	 3.5554
 2.8760	 3.8686
 2.8744	 3.5220
 2.8728	 3.5048
 2.8712	 3.7430
 2.8697	 4.0568
 2.8681	 4.1665
 2.8665	 4.0070
 2.8649	 3.6294
 2.8633	 3.3305
 2.8617	 3.4761
 2.8602	 3.6412
 2.8586	 3.6059
 2.8570	 3.7188
 2.8554	 3.9263
 2.8539	 4.1195
 2.8523	 3.9731
 2.8507	 3.7743
 2.8492	 3.8880
 2.8476	 4.1548
 2.8460	 4.3126
 2.8445	 4.2779
 2.8429	 4.0218
 2.8413	 3.8269
 2.8398	 3.7048
 2.8382	 3.7456
 2.8367	 3.7018
 2.8351	 3.6052
 2.8336	 3.8768
 2.8320	 4.1070
 2.8305	 3.8329
 2.8289	 3.6766
 2.8274	 3.6688
 2.8259	 3.6951
 2.8243	 3.9510
 2.8228	 3.9103
 2.8213	 3.7278
 2.8197	 3.9823
 2.8182	 4.1104
 2.8167	 3.5892
 2.8151	 3.6051
 2.8136	 3.8554
 2.8121	 3.6598
 2.8106	 3.5195
 2.8090	 3.6001
 2.8075	 3.3411
 2.8060	 2.7727
 2.8045	 2.9873
 2.8030	 4.0040
 2.8014	 4.9321
 2.7999	 4.3787
 2.7984	 3.5131
 2.7969	 3.2648
 2.7954	 2.7480
 2.7939	 4.0369
 2.7924	 5.1369
 2.7909	 4.5941
 2.7894	 4.0238
 2.7879	 3.6510
 2.7864	 3.4798
 2.7849	 3.6414
 2.7834	 4.0158
 2.7819	 4.0174
 2.7804	 3.5492
 2.7789	 4.0968
 2.7774	 4.1342
 2.7759	 3.7986
 2.7745	 4.2946
 2.7730	 4.6633
 2.7715	 4.2340
 2.7700	 4.1763
 2.7685	 4.2212
 2.7671	 4.0877
 2.7656	 3.9110
 2.7641	 3.8721
 2.7626	 4.2321
 2.7612	 4.4352
 2.7597	 4.3240
 2.7582	 4.4623
 2.7568	 4.6029
 2.7553	 4.7606
 2.7538	 4.5890
 2.7524	 4.5643
 2.7509	 4.6519
 2.7494	 4.5128
 2.7480	 4.6259
 2.7465	 5.0043
 2.7451	 5.0877
 2.7436	 4.9523
 2.7422	 5.0693
 2.7407	 5.4314
 2.7393	 5.1664
 2.7378	 5.0118
 2.7364	 4.8505
 2.7350	 4.8482
 2.7335	 5.2199
 2.7321	 5.7364
 2.7306	 6.0055
 2.7292	 5.8475
 2.7278	 6.1878
 2.7263	 6.6099
 2.7249	 6.8541
 2.7235	 6.7606
 2.7220	 6.6976
 2.7206	 7.3002
 2.7192	 7.8910
 2.7178	 7.9454
 2.7163	 7.7565
 2.7149	 7.7261
 2.7135	 8.1427
 2.7121	 8.6912
 2.7106	 9.1841
 2.7092	 9.3041
 2.7078	 9.2964
 2.7064	 9.4259
 2.7050	 9.8599
 2.7036	10.4738
 2.7022	10.9647
 2.7008	11.1012
 2.6994	11.2113
 2.6980	11.3680
 2.6965	11.5194
 2.6951	11.6600
 2.6938	11.7381
 2.6923	11.8360
 2.6910	12.1003
 2.6896	12.3379
 2.6882	12.6047
 2.6868	12.7282
 2.6854	12.6723
 2.6840	12.5662
 2.6826	12.5455
 2.6812	12.7087
 2.6798	12.9121
 2.6784	12.8219
 2.6771	12.9506
 2.6757	13.1488
 2.6743	13.1430
 2.6729	13.3977
 2.6715	14.0191
 2.6702	14.1612
 2.6688	13.9516
 2.6674	14.0495
 2.6660	14.4733
 2.6647	14.4699
 2.6633	13.8731
 2.6619	13.7697
 2.6606	14.0284
 2.6592	14.1499
 2.6578	14.1482
 2.6565	14.2621
 2.6551	14.5737
 2.6538	14.5491
 2.6524	14.3772
 2.6511	14.4410
 2.6497	14.4471
 2.6484	14.5280
 2.6470	14.7297
 2.6456	14.6859
 2.6443	14.6307
 2.6429	14.6235
 2.6416	14.7194
 2.6403	14.5650
 2.6389	14.4174
 2.6376	14.5453
 2.6362	14.9533
 2.6349	15.2855
 2.6336	15.1873
 2.6322	15.1078
 2.6309	15.0997
 2.6296	14.9026
 2.6282	14.9228
 2.6269	14.9791
 2.6256	14.6863
 2.6242	14.8415
 2.6229	14.9844
 2.6216	15.0465
 2.6203	15.0158
 2.6189	14.8807
 2.6176	14.9057
 2.6163	14.8741
 2.6150	15.1559
 2.6136	15.5539
 2.6123	15.6581
 2.6110	15.4241
 2.6097	15.1812
 2.6084	15.4140
 2.6071	15.5404
 2.6058	15.2318
 2.6044	15.0726
 2.6031	15.2691
 2.6018	15.3789
 2.6005	15.1398
 2.5992	15.0502
 2.5979	15.1055
 2.5966	15.5789
 2.5953	15.5939
 2.5940	15.0747
 2.5927	15.0225
 2.5914	15.5090
 2.5901	15.4649
 2.5888	15.1344
 2.5876	15.3047
 2.5863	15.3190
 2.5850	15.2566
 2.5837	15.2165
 2.5824	15.3016
 2.5811	15.4916
 2.5798	15.6382
 2.5785	15.7509
 2.5773	15.6924
 2.5760	15.7471
 2.5747	15.5332
 2.5734	14.8857
 2.5722	14.9451
 2.5709	15.3708
 2.5696	15.2475
 2.5683	14.9026
 2.5671	14.9864
 2.5658	15.1573
 2.5645	15.6441
 2.5633	15.6619
 2.5620	15.5235
 2.5607	15.5417
 2.5595	15.4226
 2.5582	15.0562
 2.5569	15.2212
 2.5557	15.3510
 2.5544	15.1159
 2.5532	15.1760
 2.5519	15.4748
 2.5507	15.2617
 2.5494	15.3366
 2.5481	15.3202
 2.5469	15.1658
 2.5456	15.1288
 2.5444	15.0924
 2.5431	15.0072
 2.5419	15.0237
 2.5406	14.9441
 2.5394	15.2023
 2.5382	15.8928
 2.5369	15.9444
 2.5357	15.4749
 2.5344	15.3923
 2.5332	15.5133
 2.5320	15.6825
 2.5307	15.5545
 2.5295	14.9855
 2.5283	14.8862
 2.5270	15.3156
 2.5258	15.3682
 2.5246	15.1031
 2.5233	14.9153
 2.5221	15.2142
 2.5209	15.5968
 2.5197	15.5704
 2.5184	15.6674
 2.5172	15.8016
 2.5160	15.5604
 2.5148	15.2678
 2.5136	15.2940
 2.5123	15.2868
 2.5111	14.9868
 2.5099	15.1491
 2.5087	15.4238
 2.5075	15.4975
 2.5063	15.6537
 2.5051	15.7178
 2.5038	15.5163
 2.5026	15.1565
 2.5014	15.1413
 2.5002	15.3890
 2.5000	11.3815
 2.4990	11.2443
 2.4980	11.3953
 2.4970	11.5903
 2.4960	11.0829
 2.4950	11.4838
 2.4940	11.6825
 2.4930	11.2915
 2.4920	11.6018
 2.4910	11.3587
 2.4900	11.7421
 2.4890	11.4175
 2.4880	11.5822
 2.4870	11.5564
 2.4860	11.6760
 2.4850	11.3545
 2.4840	11.6605
 2.4830	11.4905
 2.4820	11.6039
 2.4810	11.5513
 2.4800	11.7121
 2.4790	11.5408
 2.4780	11.6074
 2.4770	11.4910
 2.4760	11.8479
 2.4750	11.5416
 2.4740	11.6409
 2.4730	11.5423
 2.4720	11.7987
 2.4710	11.6405
 2.4700	11.8366
 2.4690	11.7925
 2.4680	11.8740
 2.4670	11.5409
 2.4660	11.8979
 2.4650	11.7309
 2.4640	11.8816
 2.4630	11.7668
 2.4620	11.8249
 2.4610	11.7923
 2.4600	11.9203
 2.4590	11.7138
 2.4580	12.0633
 2.4570	11.8306
 2.4560	11.8540
 2.4550	11.8554
 2.4540	11.9936
 2.4530	12.0433
 2.4520	12.0930
 2.4510	11.9582
 2.4500	12.0632
 2.4490	12.0074
 2.4480	12.1428
 2.4470	12.0390
 2.4460	12.1492
 2.4450	12.0704
 2.4440	12.1772
 2.4430	12.1279
 2.4420	12.2133
 2.4410	12.0704
 2.4400	12.1637
 2.4390	12.1638
 2.4380	12.1905
 2.4370	12.0775
 2.4360	12.3130
 2.4350	12.2658
 2.4340	12.3088
 2.4330	12.2904
 2.4320	12.3999
 2.4310	12.2905
 2.4300	12.3736
 2.4290	12.2590
 2.4280	12.3763
 2.4270	12.3383
 2.4260	12.3712
 2.4250	12.3638
 2.4240	12.4194
 2.4230	12.4175
 2.4220	12.5698
 2.4210	12.4162
 2.4200	12.5177
 2.4190	12.4328
 2.4180	12.5731
 2.4170	12.4564
 2.4160	12.6186
 2.4150	12.4814
 2.4140	12.5694
 2.4130	12.6223
 2.4120	12.6284
 2.4110	12.5667
 2.4100	12.6511
 2.4090	12.5516
 2.4080	12.6077
 2.4070	12.6537
 2.4060	12.7001
 2.4050	12.6659
 2.4040	12.6789
 2.4030	12.5990
 2.4020	12.7280
 2.4010	12.6937
 2.4000	12.7342
 2.3990	12.7291
 2.3980	12.8102
 2.3970	12.7735
 2.3960	12.7539
 2.3950	12.7791
 2.3940	12.8240
 2.3930	12.7542
 2.3920	12.7447
 2.3910	12.8163
 2.3900	12.9167
 2.3890	12.7895
 2.3880	12.8430
 2.3870	12.8481
 2.3860	12.8500
 2.3850	12.8395
 2.3840	12.8766
 2.3830	12.8986
 2.3820	12.9190
 2.3810	12.8840
 2.3800	12.9753
 2.3790	12.9693
 2.3780	12.9215
 2.3770	12.8751
 2.3760	12.9876
 2.3750	13.0224
 2.3740	13.0038
 2.3730	13.0380
 2.3720	13.0628
 2.3710	13.0767
 2.3700	13.1401
 2.3690	13.0985
 2.3680	13.1497
 2.3670	13.1808
 2.3660	13.1259
 2.3650	13.1592
 2.3640	13.2562
 2.3630	13.2914
 2.3620	13.2905
 2.3610	13.2751
 2.3600	13.3123
 2.3590	13.3527
 2.3580	13.3399
 2.3570	13.3300
 2.3560	13.3665
 2.3550	13.3712
 2.3540	13.3618
 2.3530	13.3865
 2.3520	13.4490
 2.3510	13.4489
 2.3500	13.3855
 2.3490	13.4615
 2.3480	13.5236
 2.3470	13.5493
 2.3460	13.5677
 2.3450	13.5834
 2.3440	13.5923
 2.3430	13.6046
 2.3420	13.5920
 2.3410	13.6043
 2.3400	13.5768
 2.3390	13.6261
 2.3380	13.6498
 2.3370	13.6576
 2.3360	13.6458
 2.3350	13.6369
 2.3340	13.6530
 2.3330	13.6919
 2.3320	13.7030
 2.3310	13.6998
 2.3300	13.5974
 2.3290	13.7121
 2.3280	13.7033
 2.3270	13.7085
 2.3260	13.7085
 2.3250	13.7590
 2.3240	13.7274
 2.3230	13.7581
 2.3220	13.7546
 2.3210	13.7658
 2.3200	13.7120
 2.3190	13.6804
 2.3180	13.7043
 2.3170	13.7385
 2.3160	13.6896
 2.3150	13.7272
 2.3140	13.6997
 2.3130	13.7547
 2.3120	13.6686
 2.3110	13.7315
 2.3100	13.6589
 2.3090	13.7449
 2.3080	13.7010
 2.3070	13.6540
 2.3060	13.6519
 2.3050	13.6903
 2.3040	13.6121
 2.3030	13.6777
 2.3020	13.6381
 2.3010	13.6656
 2.3000	13.6314
 2.2990	13.7246
 2.2980	13.6758
 2.2970	13.7016
 2.2960	13.6923
 2.2950	13.7385
 2.2940	13.6646
 2.2930	13.7635
 2.2920	13.7323
 2.2910	13.7867
 2.2900	13.7940
 2.2890	13.8540
 2.2880	13.8054
 2.2870	13.9120
 2.2860	13.8772
 2.2850	13.8947
 2.2840	13.9262
 2.2830	13.9900
 2.2820	13.9531
 2.2810	14.0139
 2.2800	14.0102
 2.2790	14.0947
 2.2780	14.0697
 2.2770	14.2095
 2.2760	14.1241
 2.2750	14.1929
 2.2740	14.1761
 2.2730	14.2255
 2.2720	14.2859
 2.2710	14.3020
 2.2700	14.2274
 2.2690	14.3256
 2.2680	14.2937
 2.2670	14.3020
 2.2660	14.2497
 2.2650	14.3589
 2.2640	14.3114
 2.2630	14.3643
 2.2620	14.3339
 2.2610	14.3794
 2.2600	14.2819
 2.2590	14.4335
 2.2580	14.3186
 2.2570	14.4100
 2.2560	14.2886
 2.2550	14.3737
 2.2540	14.2386
 2.2530	14.3616
 2.2520	14.3389
 2.2510	14.3329
 2.2500	14.2838
 2.2490	14.3634
 2.2480	14.3096
 2.2470	14.5364
 2.2460	14.3150
 2.2450	14.4101
 2.2440	14.3019
 2.2430	14.4378
 2.2420	14.4441
 2.2410	14.4298
 2.2400	14.3750
 2.2390	14.5302
 2.2380	14.4447
 2.2370	14.5590
 2.2360	14.4510
 2.2350	14.6198
 2.2340	14.5276
 2.2330	14.6084
 2.2320	14.5383
 2.2310	14.4692
 2.2300	14.4786
 2.2290	14.5796
 2.2280	14.5252
 2.2270	14.6553
 2.2260	14.5058
 2.2250	14.6056
 2.2240	14.5734
 2.2230	14.7260
 2.2220	14.5494
 2.2210	14.7078
 2.2200	14.6071
 2.2190	14.7584
 2.2180	14.6644
 2.2170	14.7340
 2.2160	14.5855
 2.2150	14.7971
 2.2140	14.6228
 2.2130	14.8065
 2.2120	14.7675
 2.2110	14.6031
 2.2100	14.7457
 2.2090	14.7990
 2.2080	14.7452
 2.2070	14.7954
 2.2060	14.7190
 2.2050	14.8116
 2.2040	14.7581
 2.2030	14.8337
 2.2020	14.7729
 2.2010	14.8565
 2.2000	14.8710
 2.1990	14.9121
 2.1980	14.8656
 2.1970	15.0533
 2.1960	14.8983
 2.1950	15.0797
 2.1940	14.9505
 2.1930	15.0659
 2.1920	14.9888
 2.1910	15.0694
 2.1900	14.8835
 2.1890	15.1746
 2.1880	14.9959
 2.1870	15.1799
 2.1860	15.0544
 2.1850	15.1661
 2.1840	15.0495
 2.1830	15.1777
 2.1820	15.0605
 2.1810	15.2201
 2.1800	15.1554
 2.1790	15.1806
 2.1780	15.1742
 2.1770	15.2390
 2.1760	15.1563
 2.1750	15.2758
 2.1740	15.1219
 2.1730	15.2972
 2.1720	15.1885
 2.1710	15.3304
 2.1700	15.1352
 2.1690	15.3155
 2.1680	15.2510
 2.1670	15.2822
 2.1660	15.2522
 2.1650	15.3255
 2.1640	15.2171
 2.1630	15.3459
 2.1620	15.1942
 2.1610	15.3446
 2.1600	15.2286
 2.1590	15.3258
 2.1580	15.3210
 2.1570	15.3015
 2.1560	15.3052
 2.1550	15.3488
 2.1540	15.3023
 2.1530	15.3634
 2.1520	15.2509
 2.1510	15.3186
 2.1500	15.3291
 2.1490	15.3632
 2.1480	15.2933
 2.1470	15.3307
 2.1460	15.3100
 2.1450	15.3712
 2.1440	15.3251
 2.1430	15.3473
 2.1420	15.3087
 2.1410	15.3002
 2.1400	15.3185
 2.1390	15.3442
 2.1380	15.2535
 2.1370	15.2949
 2.1360	15.2285
 2.1350	15.3363
 2.1340	15.3173
 2.1330	15.3343
 2.1320	15.3122
 2.1310	15.3432
 2.1300	15.2819
 2.1290	15.3209
 2.1280	15.3077
 2.1270	15.3056
 2.1260	15.2014
 2.1250	15.2600
 2.1240	15.2503
 2.1230	15.2621
 2.1220	15.2020
 2.1210	15.2028
 2.1200	15.1332
 2.1190	15.2246
 2.1180	15.1878
 2.1170	15.1822
 2.1160	15.1963
 2.1150	15.1782
 2.1140	15.1035
 2.1130	15.1422
 2.1120	15.1229
 2.1110	15.1626
 2.1100	15.1432
 2.1090	15.1694
 2.1080	15.1337
 2.1070	15.1330
 2.1060	15.1074
 2.1050	15.0789
 2.1040	15.0286
 2.1030	15.0614
 2.1020	15.0428
 2.1010	15.0871
 2.1000	15.0094
 2.0990	15.0360
 2.0980	15.0742
 2.0970	15.0824
 2.0960	15.0030
 2.0950	15.0473
 2.0940	15.0661
 2.0930	15.0676
 2.0920	15.0469
 2.0910	15.0966
 2.0900	15.0411
 2.0890	15.0381
 2.0880	15.0733
 2.0870	15.0348
 2.0860	15.0231
 2.0850	15.0767
 2.0840	15.0733
 2.0830	15.0728
 2.0820	15.0571
 2.0810	15.1031
 2.0800	15.0947
 2.0790	15.0408
 2.0780	15.0669
 2.0770	15.0953
 2.0760	15.1172
 2.0750	15.1054
 2.0740	15.0823
 2.0730	15.1081
 2.0720	15.1241
 2.0710	15.0985
 2.0700	15.0770
 2.0690	15.0978
 2.0680	15.1369
 2.0670	15.1004
 2.0660	15.0752
 2.0650	15.1066
 2.0640	15.1265
 2.0630	15.1243
 2.0620	15.1105
 2.0610	15.0521
 2.0600	15.0576
 2.0590	15.0339
 2.0580	15.0158
 2.0570	15.0397
 2.0560	15.0709
 2.0550	15.0498
 2.0540	15.0450
 2.0530	15.0376
 2.0520	15.1124
 2.0510	15.0688
 2.0500	15.0106
 2.0490	15.0606
 2.0480	15.0471
 2.0470	15.0017
 2.0460	15.0060
 2.0450	14.9830
 2.0440	15.0577
 2.0430	14.9722
 2.0420	14.9617
 2.0410	15.0142
 2.0400	14.9861
 2.0390	14.9037
 2.0380	14.9635
 2.0370	14.9696
 2.0360	14.9373
 2.0350	14.9148
 2.0340	14.9641
 2.0330	14.8822
 2.0320	14.9482
 2.0310	14.9103
 2.0300	14.9640
 2.0290	14.9180
 2.0280	14.8782
 2.0270	14.8146
 2.0260	14.8404
 2.0250	14.8129
 2.0240	14.8539
 2.0230	14.7443
 2.0220	14.8378
 2.0210	14.7614
 2.0200	14.7965
 2.0190	14.7546
 2.0180	14.7882
 2.0170	14.6855
 2.0160	14.6629
 2.0150	14.6792
 2.0140	14.7653
 2.0130	14.6550
 2.0120	14.6498
 2.0110	14.6209
 2.0100	14.6181
 2.0090	14.5407
 2.0080	14.6150
 2.0070	14.5024
 2.0060	14.5667
 2.0050	14.4856
 2.0040	14.4957
 2.0030	14.4349
 2.0020	14.5420
 2.0010	14.3920
 2.0000	14.4798
 1.9990	14.3916
 1.9980	14.3738
 1.9970	14.2676
 1.9960	14.3413
 1.9950	14.1954
 1.9940	14.2745
 1.9930	14.2749
 1.9920	14.2758
 1.9910	14.1155
 1.9900	14.2236
 1.9890	14.1471
 1.9880	14.1828
 1.9870	14.0494
 1.9860	14.1567
 1.9850	14.0380
 1.9840	14.0583
 1.9830	13.9944
 1.9820	14.0254
 1.9810	13.9426
 1.9800	14.0297
 1.9790	13.9613
 1.9780	13.9985
 1.9770	13.8684
 1.9760	13.8612
 1.9750	13.7884
 1.9740	13.8656
 1.9730	13.7670
 1.9720	13.8573
 1.9710	13.7802
 1.9700	13.8256
 1.9690	13.6897
 1.9680	13.8440
 1.9670	13.7138
 1.9660	13.7413
 1.9650	13.6498
 1.9640	13.7335
 1.9630	13.5573
 1.9620	13.6827
 1.9610	13.5686
 1.9600	13.6062
 1.9590	13.4482
 1.9580	13.6278
 1.9570	13.4575
 1.9560	13.4801
 1.9550	13.4163
 1.9540	13.4401
 1.9530	13.3842
 1.9520	13.4708
 1.9510	13.3348
 1.9500	13.3999
 1.9490	13.3346
 1.9480	13.4658
 1.9470	13.2867
 1.9460	13.3504
 1.9450	13.1635
 1.9440	13.3397
 1.9430	13.3015
 1.9420	13.3054
 1.9410	13.1207
 1.9400	13.2060
 1.9390	13.0694
 1.9380	13.1801
 1.9370	13.0346
 1.9360	13.0733
 1.9350	12.9757
 1.9340	12.9906
 1.9330	12.9297
 1.9320	12.9196
 1.9310	12.7582
 1.9300	12.9127
 1.9290	12.7793
 1.9280	12.7794
 1.9270	12.7519
 1.9260	12.5644
 1.9250	12.5464
 1.9240	12.5232
 1.9230	12.4100
 1.9220	12.4515
 1.9210	12.2792
 1.9200	12.2910
 1.9190	12.2356
 1.9180	12.1087
 1.9170	12.0540
 1.9160	12.0643
 1.9150	11.9959
 1.9140	12.1038
 1.9130	11.9198
 1.9120	12.0513
 1.9110	11.8973
 1.9100	12.0130
 1.9090	11.8257
 1.9080	12.0392
 1.9070	11.9790
 1.9060	12.1083
 1.9050	12.1392
 1.9040	12.3744
 1.9030	12.4452
 1.9020	12.6389
 1.9010	12.8164
 1.9000	12.9602
 1.8990	13.0232
 1.8980	13.2800
 1.8970	13.3513
 1.8960	13.6298
 1.8950	13.7088
 1.8940	14.0293
 1.8930	14.0630
 1.8920	14.2681
 1.8910	14.3451
 1.8900	14.6042
 1.8890	14.6192
 1.8880	14.9214
 1.8870	14.9116
 1.8860	15.1077
 1.8850	15.1419
 1.8840	15.2495
 1.8830	15.2816
 1.8820	15.5056
 1.8810	15.5240
 1.8800	15.6295
 1.8790	15.6157
 1.8780	15.7588
 1.8770	15.6739
 1.8760	15.7487
 1.8750	15.7476
 1.8740	15.8753
 1.8730	15.9247
 1.8720	15.9894
 1.8710	15.9923
 1.8700	16.0725
 1.8690	16.0470
 1.8680	16.1942
 1.8670	16.1552
 1.8660	16.2604
 1.8650	16.2070
 1.8640	16.2782
 1.8630	16.2231
 1.8620	16.2750
 1.8610	16.2750
 1.8600	16.3385
 1.8590	16.2524
 1.8580	16.3665
 1.8570	16.2495
 1.8560	16.3932
 1.8550	16.3905
 1.8540	16.4246
 1.8530	16.3528
 1.8520	16.4658
 1.8510	16.3714
 1.8500	16.4614
 1.8490	16.4231
 1.8480	16.4773
 1.8470	16.4341
 1.8460	16.5374
 1.8450	16.4997
 1.8440	16.5240
 1.8430	16.4497
 1.8420	16.4708
 1.8410	16.4409
 1.8400	16.4561
 1.8390	16.5149
 1.8380	16.5683
 1.8370	16.5352
 1.8360	16.5513
 1.8350	16.5604
 1.8340	16.5786
 1.8330	16.6054
 1.8320	16.6285
 1.8310	16.5684
 1.8300	16.5846
 1.8290	16.5503
 1.8280	16.6152
 1.8270	16.6234
 1.8260	16.5873
 1.8250	16.5749
 1.8240	16.6197
 1.8230	16.5991
 1.8220	16.6707
 1.8210	16.5537
 1.8200	16.6284
 1.8190	16.6452
 1.8180	16.6374
 1.8170	16.6119
 1.8160	16.6671
 1.8150	16.6677
 1.8140	16.7047
 1.8130	16.6699
 1.8120	16.6929
 1.8110	16.6789
 1.8100	16.7163
 1.8090	16.6887
 1.8080	16.6998
 1.8070	16.6983
 1.8060	16.6679
 1.8050	16.6278
 1.8040	16.6619
 1.8030	16.6624
 1.8020	16.6670
 1.8010	16.6504
 1.8000	16.6778
 1.7990	16.6988
 1.7980	16.7567
 1.7970	16.7468
 1.7960	16.6928
 1.7950	16.6555
 1.7940	16.6852
 1.7930	16.7086
 1.7920	16.7608
 1.7910	16.7238
 1.7900	16.6819
 1.7890	16.7147
 1.7880	16.7127
 1.7870	16.7230
 1.7860	16.7536
 1.7850	16.6948
 1.7840	16.6689
 1.7830	16.7493
 1.7820	16.7696
 1.7810	16.7623
 1.7800	16.7748
 1.7790	16.7618
 1.7780	16.7508
 1.7770	16.7496
 1.7760	16.7337
 1.7750	16.7527
 1.7740	16.7347
 1.7730	16.7605
 1.7720	16.7736
 1.7710	16.7587
 1.7700	16.7410
 1.7690	16.7660
 1.7680	16.7602
 1.7670	16.7930
 1.7660	16.7941
 1.7650	16.8110
 1.7640	16.8129
 1.7630	16.8397
 1.7620	16.7895
 1.7610	16.8375
 1.7600	16.8196
 1.7590	16.8180
 1.7580	16.8388
 1.7570	16.9013
 1.7560	16.7863
 1.7550	16.8329
 1.7540	16.8238
 1.7530	16.8648
 1.7520	16.8148
 1.7510	16.8599
 1.7500	16.8442
 1.7490	16.8503
 1.7480	16.8346
 1.7470	16.9104
 1.7460	16.8474
 1.7450	16.9125
 1.7440	16.8781
 1.7430	16.8727
 1.7420	16.8388
 1.7410	16.9101
 1.7400	16.9041
 1.7390	16.8964
 1.7380	16.8939
 1.7370	16.9313
 1.7360	16.8758
 1.7350	16.9515
 1.7340	16.9443
 1.7330	16.9887
 1.7320	16.9054
 1.7310	16.9904
 1.7300	16.9517
 1.7290	16.9463
 1.7280	16.9470
 1.7270	16.9878
 1.7260	16.9365
 1.7250	16.9440
 1.7240	16.9345
 1.7230	16.9548
 1.7220	16.8975
 1.7210	17.0339
 1.7200	16.9572
 1.7190	17.0929
 1.7180	17.0040
 1.7170	16.9700
 1.7160	16.9913
 1.7150	16.9995
 1.7140	16.9889
 1.7130	17.0489
 1.7120	17.0201
 1.7110	17.0546
 1.7100	16.9969
 1.7090	17.0955
 1.7080	17.0461
 1.7070	17.0562
 1.7060	17.0531
 1.7050	17.0176
 1.7040	16.9910
 1.7030	17.0283
 1.7020	16.9948
 1.7010	17.0749
 1.7000	17.0237
 1.6990	17.1419
 1.6980	17.0863
 1.6970	17.1557
 1.6960	17.0331
 1.6950	17.1580
 1.6940	17.1345
 1.6930	17.1396
 1.6920	17.0961
 1.6910	17.2225
 1.6900	17.1676
 1.6890	17.1187
 1.6880	17.1536
 1.6870	17.1083
 1.6860	17.1141
 1.6850	17.1638
 1.6840	17.0139
 1.6830	17.2328
 1.6820	17.1110
 1.6810	17.1825
 1.6800	17.1961
 1.6790	17.2064
 1.6780	17.0659
 1.6770	17.2175
 1.6760	17.1368
 1.6750	17.1965
 1.6740	17.1485
 1.6730	17.2136
 1.6720	17.1266
 1.6710	17.2130
 1.6700	17.1324
 1.6690	17.2278
 1.6680	17.0436
 1.6670	17.3385
 1.6660	17.1656
 1.6650	17.2375
 1.6640	17.1614
 1.6630	17.2425
 1.6620	17.1389
 1.6610	17.3142
 1.6600	17.1866
 1.6590	17.3272
 1.6580	17.1791
 1.6570	17.2901
 1.6560	17.1684
 1.6550	17.2938
 1.6540	17.2515
 1.6530	17.3431
 1.6520	17.1956
 1.6510	17.2866
 1.6500	17.2557
 1.6490	17.3100
 1.6480	17.2062
 1.6470	17.3068
 1.6460	17.1838
 1.6450	17.3417
 1.6440	17.2582
 1.6430	17.3019
 1.6420	17.3277
 1.6410	17.1805
 1.6400	17.3520
 1.6390	17.3649
 1.6380	17.2626
 1.6370	17.3359
 1.6360	17.3343
 1.6350	17.3177
 1.6340	17.2285
 1.6330	17.3087
 1.6320	17.2449
 1.6310	17.3588
 1.6300	17.2996
 1.6290	17.3792
 1.6280	17.3253
 1.6270	17.3252
 1.6260	17.2334
 1.6250	17.3561
 1.6240	17.2584
 1.6230	17.2916
 1.6220	17.2831
 1.6210	17.4012
 1.6200	17.3163
 1.6190	17.4444
 1.6180	17.2207
 1.6170	17.3853
 1.6160	17.2553
 1.6150	17.3634
 1.6140	17.2500
 1.6130	17.4397
 1.6120	17.2981
 1.6110	17.4258
 1.6100	17.2910
 1.6090	17.4714
 1.6080	17.3647
 1.6070	17.4153
 1.6060	17.3424
 1.6050	17.4165
 1.6040	17.3963
 1.6030	17.3591
 1.6020	17.3213
 1.6010	17.4019
 1.6000	17.3396
 1.5990	17.4329
 1.5980	17.3793
 1.5970	17.4714
 1.5960	17.3442
 1.5950	17.3713
 1.5940	17.4281
 1.5930	17.4423
 1.5920	17.3191
 1.5910	17.3737
 1.5900	17.2989
 1.5890	17.4410
 1.5880	17.4401
 1.5870	17.4139
 1.5860	17.3812
 1.5850	17.4885
 1.5840	17.3990
 1.5830	17.4019
 1.5820	17.3186
 1.5810	17.4449
 1.5800	17.3855
 1.5790	17.4578
 1.5780	17.4139
 1.5770	17.4551
 1.5760	17.3711
 1.5750	17.4245
 1.5740	17.3258
 1.5730	17.4497
 1.5720	17.3641
 1.5710	17.4383
 1.5700	17.3851
 1.5690	17.4255
 1.5680	17.4025
 1.5670	17.3962
 1.5660	17.4454
 1.5650	17.5077
 1.5640	17.4063
 1.5630	17.4508
 1.5620	17.4085
 1.5610	17.4495
 1.5600	17.3450
 1.5590	17.4230
 1.5580	17.3983
 1.5570	17.4809
 1.5560	17.4184
 1.5550	17.4220
 1.5540	17.4013
 1.5530	17.4663
 1.5520	17.3895
 1.5510	17.4664
 1.5500	17.4265
 1.5490	17.4502
 1.5480	17.4013
 1.5470	17.4597
 1.5460	17.4133
 1.5450	17.4485
 1.5440	17.3783
 1.5430	17.4193
 1.5420	17.4073
 1.5410	17.4240
 1.5400	17.4363
 1.5390	17.4266
 1.5380	17.4313
 1.5370	17.4655
 1.5360	17.3882
 1.5350	17.4508
 1.5340	17.4550
 1.5330	17.4689
 1.5320	17.4208
 1.5310	17.4484
 1.5300	17.4899
 1.5290	17.5413
 1.5280	17.4443
 1.5270	17.3964
 1.5260	17.3764
 1.5250	17.4186
 1.5240	17.4330
 1.5230	17.4481
 1.5220	17.4055
 1.5210	17.4475
 1.5200	17.3908
 1.5190	17.3938
 1.5180	17.3964
 1.5170	17.4278
 1.5160	17.4210
 1.5150	17.4093
 1.5140	17.4034
 1.5130	17.4639
 1.5120	17.4295
 1.5110	17.4011
 1.5100	17.3872
 1.5090	17.3771
 1.5080	17.4197
 1.5070	17.4074
 1.5060	17.3967
 1.5050	17.4384
 1.5040	17.4214
 1.5030	17.3989
 1.5020	17.3637
 1.5010	17.3948
 1.5000	17.4018
 1.4990	17.3827
 1.4980	17.3613
 1.4970	17.3365
 1.4960	17.3349
 1.4950	17.2846
 1.4940	17.2949
 1.4930	17.3337
 1.4920	17.3095
 1.4910	17.3360
 1.4900	17.3625
 1.4890	17.3011
 1.4880	17.3286
 1.4870	17.2611
 1.4860	17.2258
 1.4850	17.2528
 1.4840	17.3342
 1.4830	17.3307
 1.4820	17.2758
 1.4810	17.2193
 1.4800	17.2007
 1.4790	17.1978
 1.4780	17.2158
 1.4770	17.2095
 1.4760	17.1894
 1.4750	17.1614
 1.4740	17.1770
 1.4730	17.1625
 1.4720	17.1599
 1.4710	17.0989
 1.4700	17.1637
 1.4690	17.1315
 1.4680	17.1520
 1.4670	17.1108
 1.4660	17.0886
 1.4650	16.9928
 1.4640	17.1096
 1.4630	17.0492
 1.4620	17.1947
 1.4610	17.1471
 1.4600	17.0867
 1.4590	17.0919
 1.4580	17.0998
 1.4570	17.0365
 1.4560	17.0841
 1.4550	17.0588
 1.4540	17.1425
 1.4530	17.0659
 1.4520	17.0782
 1.4510	17.0238
 1.4500	17.0438
 1.4490	17.0490
 1.4480	17.1034
 1.4470	16.9169
 1.4460	16.9878
 1.4450	16.9682
 1.4440	16.9667
 1.4430	16.8967
 1.4420	16.9499
 1.4410	16.9005
 1.4400	16.8964
 1.4390	16.9524
 1.4380	16.8629
 1.4370	16.7755
 1.4360	16.8464
 1.4350	16.8226
 1.4340	16.8111
 1.4330	16.6809
 1.4320	16.7694
 1.4310	16.7079
 1.4300	16.7043
 1.4290	16.6538
 1.4280	16.6703
 1.4270	16.6492
 1.4260	16.6869
 1.4250	16.5835
 1.4240	16.6210
 1.4230	16.5439
 1.4220	16.5295
 1.4210	16.4998
 1.4200	16.6060
 1.4190	16.4729
 1.4180	16.5586
 1.4170	16.5281
 1.4160	16.5211
 1.4150	16.5609
 1.4140	16.5453
 1.4130	16.5269
 1.4120	16.6355
 1.4110	16.6690
 1.4100	16.6865
 1.4090	16.6625
 1.4080	16.7739
 1.4070	16.7056
 1.4060	16.8293
 1.4050	16.7917
 1.4040	16.9310
 1.4030	16.9459
 1.4020	17.1086
 1.4010	17.1415
 1.4000	17.2476
 1.3990	17.2606
 1.3980	17.3933
 1.3970	17.4137
 1.3960	17.4835
 1.3950	17.4182
 1.3940	17.5595
 1.3930	17.5284
 1.3920	17.7744
 1.3910	17.6867
 1.3900	17.8247
 1.3890	17.7577
 1.3880	17.8895
 1.3870	17.7924
 1.3860	18.0049
 1.3850	17.8688
 1.3840	18.0481
 1.3830	17.9807
 1.3820	18.1540
 1.3810	17.9513
 1.3800	18.1229
 1.3790	18.1271
 1.3780	18.2392
 1.3770	18.1414
 1.3760	18.1759
 1.3750	18.1026
 1.3740	18.2632
 1.3730	18.1998
 1.3720	18.2421
 1.3710	18.1387
 1.3700	18.1867
 1.3690	18.2300
 1.3680	18.2982
 1.3670	18.1111
 1.3660	18.2858
 1.3650	18.1993
 1.3640	18.2689
 1.3630	18.2536
 1.3620	18.2677
 1.3610	18.1303
 1.3600	18.3532
 1.3590	18.1682
 1.3580	18.3301
 1.3570	18.2691
 1.3560	18.4634
 1.3550	18.1298
 1.3540	18.4260
 1.3530	18.3242
 1.3520	18.3954
 1.3510	18.2731
 1.3500	18.3872
 1.3490	18.2564
 1.3480	18.4328
 1.3470	18.3233
 1.3460	18.3694
 1.3450	18.3965
 1.3440	18.4343
 1.3430	18.2849
 1.3420	18.3636
 1.3410	18.4015
 1.3400	18.4567
 1.3390	18.3307
 1.3380	18.4018
 1.3370	18.3767
 1.3360	18.4915
 1.3350	18.4183
 1.3340	18.3601
 1.3330	18.3653
 1.3320	18.4400
 1.3310	18.4116
 1.3300	18.4925
 1.3290	18.4559
 1.3280	18.5066
 1.3270	18.3951
 1.3260	18.5513
 1.3250	18.5164
 1.3240	18.5748
 1.3230	18.4489
 1.3220	18.5852
 1.3210	18.4797
 1.3200	18.5178
 1.3190	18.4850
 1.3180	18.5438
 1.3170	18.4927
 1.3160	18.6030
 1.3150	18.5545
 1.3140	18.5841
 1.3130	18.5016
 1.3120	18.5691
 1.3110	18.5224
 1.3100	18.5790
 1.3090	18.5241
 1.3080	18.5615
 1.3070	18.5482
 1.3060	18.6716
 1.3050	18.4742
 1.3040	18.5930
 1.3030	18.5716
 1.3020	18.6577
 1.3010	18.5999
 1.3000	18.6266
 1.2990	18.5957
 1.2980	18.6309
 1.2970	18.6161
 1.2960	18.6531
 1.2950	18.6170
 1.2940	18.6662
 1.2930	18.5937
 1.2920	18.6322
 1.2910	18.6288
 1.2900	18.6968
 1.2890	18.6375
 1.2880	18.6754
 1.2870	18.6919
 1.2860	18.7109
 1.2850	18.6471
 1.2840	18.6337
 1.2830	18.6523
 1.2820	18.7379
 1.2810	18.6906
 1.2800	18.6792
 1.2790	18.6423
 1.2780	18.6970
 1.2770	18.6329
 1.2760	18.7428
 1.2750	18.6765
 1.2740	18.7179
 1.2730	18.7313
 1.2720	18.7716
 1.2710	18.7150
 1.2700	18.7317
 1.2690	18.7152
 1.2680	18.7661
 1.2670	18.6880
 1.2660	18.7409
 1.2650	18.7275
 1.2640	18.7491
 1.2630	18.7508
 1.2620	18.7770
 1.2610	18.7722
 1.2600	18.8044
 1.2590	18.7274
 1.2580	18.7373
 1.2570	18.7706
 1.2560	18.7532
 1.2550	18.7278
 1.2540	18.8004
 1.2530	18.7516
 1.2520	18.8130
 1.2510	18.7605
 1.2500	18.7912
 1.2490	18.8397
 1.2480	18.8437
 1.2470	18.7995
 1.2460	18.8711
 1.2450	18.8094
 1.2440	18.8400
 1.2430	18.8211
 1.2420	18.8508
 1.2410	18.8658
 1.2400	18.9195
 1.2390	18.8226
 1.2380	18.8502
 1.2370	18.8289
 1.2360	18.8520
 1.2350	18.8390
 1.2340	18.8193
 1.2330	18.8310
 1.2320	18.8707
 1.2310	18.8642
 1.2300	18.8741
 1.2290	18.8547
 1.2280	18.8681
 1.2270	18.8777
 1.2260	18.8667
 1.2250	18.8517
 1.2240	18.8658
 1.2230	18.8459
 1.2220	18.8891
 1.2210	18.9137
 1.2200	18.9060
 1.2190	18.9057
 1.2180	18.9305
 1.2170	18.9229
 1.2160	18.8915
 1.2150	18.8988
 1.2140	18.9513
 1.2130	18.9465
 1.2120	18.8691
 1.2110	18.9071
 1.2100	18.9196
 1.2090	18.8931
 1.2080	18.9226
 1.2070	18.9288
 1.2060	18.9170
 1.2050	18.9337
 1.2040	18.9070
 1.2030	18.9496
 1.2020	18.9805
 1.2010	18.9450
 1.2000	18.8959
 1.1990	18.9153
 1.1980	18.9478
 1.1970	18.9339
 1.1960	18.9056
 1.1950	18.9216
 1.1940	18.9600
 1.1930	19.0174
 1.1920	18.9540
 1.1910	18.9634
 1.1900	18.9878
 1.1890	18.9990
 1.1880	18.8513
 1.1870	18.9821
 1.1860	19.0408
 1.1850	18.9858
 1.1840	18.9702
 1.1830	19.0168
 1.1820	19.0131
 1.1810	19.0709
 1.1800	18.9559
 1.1790	19.0374
 1.1780	19.0617
 1.1770	19.0678
 1.1760	19.0068
 1.1750	19.0649
 1.1740	19.0536
 1.1730	19.0642
 1.1720	19.0347
 1.1710	19.0701
 1.1700	19.0034
 1.1690	19.0954
 1.1680	19.0248
 1.1670	19.0380
 1.1660	19.0471
 1.1650	19.0786
 1.1640	19.0223
 1.1630	19.0973
 1.1620	19.0804
 1.1610	19.1168
 1.1600	19.0469
 1.1590	19.0835
 1.1580	19.0540
 1.1570	19.1442
 1.1560	19.0840
 1.1550	19.1331
 1.1540	19.0489
 1.1530	19.0885
 1.1520	19.0731
 1.1510	19.1948
 1.1500	19.1161
 1.1490	19.1218
 1.1480	19.0399
 1.1470	19.0895
 1.1460	19.1165
 1.1450	19.1549
 1.1440	19.0887
 1.1430	19.1569
 1.1420	19.1264
 1.1410	19.1636
 1.1400	19.0314
 1.1390	19.1832
 1.1380	19.1296
 1.1370	19.1872
 1.1360	19.1308
 1.1350	19.1762
 1.1340	19.1461
 1.1330	19.1866
 1.1320	19.1515
 1.1310	19.2749
 1.1300	19.2073
 1.1290	19.2890
 1.1280	19.2031
 1.1270	19.2199
 1.1260	19.2082
 1.1250	19.2204
 1.1240	19.1725
 1.1230	19.2280
 1.1220	19.2436
 1.1210	19.2996
 1.1200	19.1787
 1.1190	19.2758
 1.1180	19.2321
 1.1170	19.2395
 1.1160	19.1873
 1.1150	19.2842
 1.1140	19.1934
 1.1130	19.2883
 1.1120	19.2696
 1.1110	19.3218
 1.1100	19.2410
 1.1090	19.3058
 1.1080	19.1908
 1.1070	19.2412
 1.1060	19.2769
 1.1050	19.2820
 1.1040	19.2212
 1.1030	19.3314
 1.1020	19.2744
 1.1010	19.2342
 1.1000	19.1439
 1.0990	19.3040
 1.0980	19.2691
 1.0970	19.3025
 1.0960	19.2247
 1.0950	19.3089
 1.0940	19.2392
 1.0930	19.3234
 1.0920	19.1622
 1.0910	19.2800
 1.0900	19.1983
 1.0890	19.3682
 1.0880	19.2282
 1.0870	19.3523
 1.0860	19.1693
 1.0850	19.3098
 1.0840	19.2489
 1.0830	19.3480
 1.0820	19.1425
 1.0810	19.2847
 1.0800	19.2733
 1.0790	19.3121
 1.0780	19.3225
 1.0770	19.3970
 1.0760	19.1430
 1.0750	19.2705
 1.0740	19.1899
 1.0730	19.3171
 1.0720	19.2062
 1.0710	19.4311
 1.0700	19.1002
 1.0690	19.3812
 1.0680	19.2600
 1.0670	19.3730
 1.0660	19.2720
 1.0650	19.4271
 1.0640	19.2697
 1.0630	19.3955
 1.0620	19.1888
 1.0610	19.2427
 1.0600	19.2954
 1.0590	19.3855
 1.0580	19.2812
 1.0570	19.3067
 1.0560	19.2926
 1.0550	19.3024
 1.0540	19.2336
 1.0530	19.3634
 1.0520	19.3130
 1.0510	19.3875
 1.0500	19.2292
 1.0490	19.3109
 1.0480	19.3129
 1.0470	19.4617
 1.0460	19.2481
 1.0450	19.3526
 1.0440	19.2631
 1.0430	19.3417
 1.0420	19.2954
 1.0410	19.4304
 1.0400	19.3875
 1.0390	19.3968
 1.0380	19.2879
 1.0370	19.3771
 1.0360	19.3382
 1.0350	19.4234
 1.0340	19.3815
 1.0330	19.4473
 1.0320	19.3055
 1.0310	19.4437
 1.0300	19.3472
 1.0290	19.4833
 1.0280	19.3288
 1.0270	19.4015
 1.0260	19.3400
 1.0250	19.4295
 1.0240	19.3625
 1.0230	19.3860
 1.0220	19.3947
 1.0210	19.4597
 1.0200	19.4050
 1.0190	19.5013
 1.0180	19.3373
 1.0170	19.4358
 1.0160	19.4219
 1.0150	19.4337
 1.0140	19.3632
 1.0130	19.4553
 1.0120	19.3275
 1.0110	19.3979
 1.0100	19.3919
 1.0090	19.4859
 1.0080	19.3758
 1.0070	19.4513
 1.0060	19.3796
 1.0050	19.4497
 1.0040	19.4486
 1.0030	19.5207
 1.0020	19.4066
 1.0010	19.5200
 1.0000	19.4285
 0.9990	19.4438
 0.9980	19.4614
 0.9970	19.5028
 0.9960	19.4360
 0.9950	19.4597
 0.9940	19.4222
 0.9930	19.5155
 0.9920	19.5257
 0.9910	19.5308
 0.9900	19.5208
 0.9890	19.5068
 0.9880	19.4593
 0.9870	19.5574
 0.9860	19.4869
 0.9850	19.5238
 0.9840	19.5360
 0.9830	19.5325
 0.9820	19.4805
 0.9810	19.5136
 0.9800	19.4604
 0.9790	19.5133
 0.9780	19.5037
 0.9770	19.5592
 0.9760	19.5206
 0.9750	19.5726
 0.9740	19.5759
 0.9730	19.5782
 0.9720	19.5731
 0.9710	19.5569
 0.9700	19.4302
 0.9690	19.4637
 0.9680	19.5201
 0.9670	19.6521
 0.9660	19.5998
 0.9650	19.6176
 0.9640	19.5870
 0.9630	19.6071
 0.9620	19.5281
 0.9610	19.6044
 0.9600	19.5459
 0.9590	19.5799
 0.9580	19.5533
 0.9570	19.6248
 0.9560	19.6271
 0.9550	19.6215
 0.9540	19.5594
 0.9530	19.5979
 0.9520	19.5959
 0.9510	19.6322
 0.9500	19.6395
 0.9490	19.6167
 0.9480	19.6451
 0.9470	19.6738
 0.9460	19.6486
 0.9450	19.6732
 0.9440	19.6642
 0.9430	19.6903
 0.9420	19.6477
 0.9410	19.6640
 0.9400	19.7043
 0.9390	19.7031
 0.9380	19.6886
 0.9370	19.7293
 0.9360	19.7018
 0.9350	19.6870
 0.9340	19.7162
 0.9330	19.7611
 0.9320	19.7474
 0.9310	19.7010
 0.9300	19.6986
 0.9290	19.6988
 0.9280	19.7202
 0.9270	19.7788
 0.9260	19.7936
 0.9250	19.7100
 0.9240	19.7118
 0.9230	19.7299
 0.9220	19.7651
 0.9210	19.7746
 0.9200	19.7685
 0.9190	19.7155
 0.9180	19.7154
 0.9170	19.7150
 0.9160	19.7662
 0.9150	19.7475
 0.9140	19.7328
 0.9130	19.7085
 0.9120	19.7806
 0.9110	19.7500
 0.9100	19.7067
 0.9090	19.6865
 0.9080	19.7351
 0.9070	19.7400
 0.9060	19.7134
 0.9050	19.7383
 0.9040	19.7674
 0.9030	19.6655
 0.9020	19.7025
 0.9010	19.7099
 0.9000	19.7726
 0.8990	19.7663
 0.8980	19.7845
 0.8970	19.6786
 0.8960	19.6644
 0.8950	19.7157
 0.8940	19.8069
 0.8930	19.7523
 0.8920	19.7806
 0.8910	19.7422
 0.8900	19.7346
 0.8890	19.7520
 0.8880	19.7833
 0.8870	19.7318
 0.8860	19.7981
 0.8850	19.7290
 0.8840	19.7451
 0.8830	19.7364
 0.8820	19.7891
 0.8810	19.7168
 0.8800	19.7809
 0.8790	19.7343
 0.8780	19.7950
 0.8770	19.7543
 0.8760	19.7709
 0.8750	19.7622
 0.8740	19.8745
 0.8730	19.7875
 0.8720	19.8234
 0.8710	19.7974
 0.8700	19.8038
 0.8690	19.7590
 0.8680	19.7965
 0.8670	19.7244
 0.8660	19.7570
 0.8650	19.8269
 0.8640	19.8654
 0.8630	19.7961
 0.8620	19.7934
 0.8610	19.6652
 0.8600	19.8459
 0.8590	19.8832
 0.8580	19.8694
 0.8570	19.8881
 0.8560	19.8996
 0.8550	19.9031
 0.8540	19.9018
 0.8530	19.8864
 0.8520	19.9185
 0.8510	19.9322
 0.8500	19.9553
 0.8490	19.9651
 0.8480	19.9340
 0.8470	19.9615
 0.8460	19.9877
 0.8450	19.9881
 0.8440	19.9988
 0.8430	19.9994
 0.8420	20.0303
 0.8410	20.0601
 0.8400	20.0458
 0.8390	20.0345
 0.8380	20.0517
 0.8370	20.0574
 0.8360	20.0618
 0.8350	20.0934
 0.8340	20.0912
 0.8330	20.1082
 0.8320	20.1020
 0.8310	20.0926
 0.8300	20.1146
 0.8290	20.1252
 0.8280	20.1132
 0.8270	20.1414
 0.8260	20.1352
 0.8250	20.1706
 0.8240	20.1449
 0.8230	20.1578
 0.8220	20.1639
 0.8210	20.1589
 0.8200	20.1734
 0.8190	20.1638
 0.8180	20.1593
 0.8170	20.1663
 0.8160	20.1594
 0.8150	20.1588
 0.8140	20.1626
 0.8130	20.1547
 0.8120	20.1685
 0.8110	20.1755
 0.8100	20.1625
 0.8090	20.1857
 0.8080	20.1731
 0.8070	20.1680
 0.8060	20.2050
 0.8050	20.1916
 0.8040	20.1985
 0.8030	20.1911
 0.8020	20.2004
 0.8010	20.2005
 0.8000	20.2026
 0.7990	20.2011
 0.7980	20.1893
 0.7970	20.2007
 0.7960	20.1863
 0.7950	20.1835
 0.7940	20.1682
 0.7930	20.1876
 0.7920	20.1967
 0.7910	20.1817
 0.7900	20.1818
 0.7890	20.1877
 0.7880	20.1829
 0.7870	20.1855
 0.7860	20.1872
 0.7850	20.1760
 0.7840	20.1774
 0.7830	20.1689
 0.7820	20.1706
 0.7810	20.1728
 0.7800	20.1743
 0.7790	20.1683
 0.7780	20.1558
 0.7770	20.1518
 0.7760	20.1392
 0.7750	20.1347
 0.7740	20.1323
 0.7730	20.1180
 0.7720	20.1164
 0.7710	20.1075
 0.7700	20.0978
 0.7690	20.1051
 0.7680	20.0874
 0.7670	20.0849
 0.7660	20.0856
 0.7650	20.0581
 0.7640	20.0591
 0.7630	20.0526
 0.7620	20.0388
 0.7610	20.0297
 0.7600	20.0189
 0.7590	20.0100
 0.7580	19.9981
 0.7570	19.9765
 0.7560	19.9793
 0.7550	19.9597
 0.7540	19.9534
 0.7530	19.9367
 0.7520	19.9197
 0.7510	19.9138
 0.7500	19.9013
 0.7490	19.8808
 0.7480	19.8722
 0.7470	19.8600
 0.7460	19.8398
 0.7450	19.8185
 0.7440	19.7973
 0.7430	19.7845
 0.7420	19.7645
 0.7410	19.7453
 0.7400	19.7345
 0.7390	19.7122
 0.7380	19.6937
 0.7370	19.6737
 0.7360	19.6569
 0.7350	19.6361
 0.7340	19.6149
 0.7330	19.5993
 0.7320	19.5635
 0.7310	19.5455
 0.7300	19.5282
 0.7290	19.5080
 0.7280	19.4724
 0.7270	19.4570
 0.7260	19.4386
 0.7250	19.4119
 0.7240	19.3789
 0.7230	19.3593
 0.7220	19.3360
 0.7210	19.3014
 0.7200	19.2803
 0.7190	19.2512
 0.7180	19.2340
 0.7170	19.2008
 0.7160	19.1820
 0.7150	19.1405
 0.7140	19.1168
 0.7130	19.0871
 0.7120	19.0577
 0.7110	19.0290
 0.7100	18.9930
 0.7090	18.9651
 0.7080	18.9330
 0.7070	18.8951
 0.7060	18.8606
 0.7050	18.8270
 0.7040	18.7914
 0.7030	18.7548
 0.7020	18.7260
 0.7010	18.6950
 0.7000	18.6642
 0.6990	18.6201
 0.6980	18.5941
 0.6970	18.5552
 0.6960	18.5127
 0.6950	18.4762
 0.6940	18.4431
 0.6930	18.4075
 0.6920	18.3715
 0.6910	18.3313
 0.6900	18.2987
 0.6890	18.2607
 0.6880	18.2330
 0.6870	18.2153
 0.6860	18.1799
 0.6850	18.1442
 0.6840	18.1039
 0.6830	18.0636
 0.6820	18.0247
 0.6810	17.9860
 0.6800	17.9439
 0.6790	17.9056
 0.6780	17.8637
 0.6770	17.8222
 0.6760	17.7811
 0.6750	17.7365
 0.6740	17.6985
 0.6730	17.6571
 0.6720	17.6105
 0.6710	17.5652
 0.6700	17.5287
 0.6690	17.4852
 0.6680	17.4410
 0.6670	17.4025
 0.6660	17.3638
 0.6650	17.3166
 0.6640	17.2741
 0.6630	17.2329
 0.6620	17.1928
 0.6610	17.1519
 0.6600	17.1064
 0.6590	17.0662
 0.6580	17.0250
 0.6570	16.9754
 0.6560	16.9294
 0.6550	16.8948
 0.6540	16.8548
 0.6530	16.8102
 0.6520	16.7705
 0.6510	16.7301
 0.6500	16.6850
 0.6490	16.6445
 0.6480	16.6080
 0.6470	16.5671
 0.6460	16.5267
 0.6450	16.4891
 0.6440	16.4426
 0.6430	16.4018
 0.6420	16.3628
 0.6410	16.3206
 0.6400	16.2855
 0.6390	16.2449
 0.6380	16.2020
 0.6370	16.1637
 0.6360	16.1283
 0.6350	16.0939
 0.6340	16.0564
 0.6330	16.0160
 0.6320	15.9747
 0.6310	15.9360
 0.6300	15.8997
 0.6290	15.8622
 0.6280	15.8209
 0.6270	15.7845
 0.6260	15.7497
 0.6250	15.7110
 0.6240	15.6747
 0.6230	15.6399
 0.6220	15.6019
 0.6210	15.5613
 0.6200	15.5271
 0.6190	15.4948
 0.6180	15.4544
 0.6170	15.4158
 0.6160	15.3794
 0.6150	15.3425
 0.6140	15.3034
 0.6130	15.2663
 0.6120	15.2307
 0.6110	15.1937
 0.6100	15.1605
 0.6090	15.1265
 0.6080	15.0877
 0.6070	15.0438
 0.6060	15.0093
 0.6050	14.9728
 0.6040	14.9346
 0.6030	14.8976
 0.6020	14.8586
 0.6010	14.8195
 0.6000	14.7795
 0.5990	14.7495
 0.5980	14.7149
 0.5970	14.6746
 0.5960	14.6375
 0.5950	14.6000
 0.5940	14.5635
 0.5930	14.5240
 0.5920	14.4827
 0.5910	14.4456
 0.5900	14.4052
 0.5890	14.3664
 0.5880	14.3263
 0.5870	14.2843
 0.5860	14.2433
 0.5850	14.2021
 0.5840	14.1635
 0.5830	14.1237
 0.5820	14.0818
 0.5810	14.0425
 0.5800	14.0051
 0.5790	13.9634
 0.5780	13.9236
 0.5770	13.8845
 0.5760	13.8426
 0.5750	13.8003
 0.5740	13.7608
 0.5730	13.7213
 0.5720	13.6817
 0.5710	13.6414
 0.5700	13.6036
 0.5690	13.5673
 0.5680	13.5244
 0.5670	13.4840
 0.5660	13.4456
 0.5650	13.4069
 0.5640	13.3675
 0.5630	13.3276
 0.5620	13.2927
 0.5610	13.2428
 0.5600	13.1957
 0.5590	13.1588
 0.5580	13.1171
 0.5570	13.0754
 0.5560	13.0372
 0.5550	12.9984
 0.5540	12.9592
 0.5530	12.9165
 0.5520	12.8775
 0.5510	12.8392
 0.5500	12.8001
 0.5490	12.7592
 0.5480	12.7146
 0.5470	12.6753
 0.5460	12.6351
 0.5450	12.5975
 0.5440	12.5559
 0.5430	12.5141
 0.5420	12.4691
 0.5410	12.4313
 0.5400	12.3850
 0.5390	12.3401
 0.5380	12.3003
 0.5370	12.2569
 0.5360	12.2101
 0.5350	12.1619
 0.5340	12.1171
 0.5330	12.0674
 0.5320	12.0188
 0.5310	11.9692
 0.5300	11.9152
 0.5290	11.8651
 0.5280	11.8145
 0.5270	11.7647
 0.5260	11.7130
 0.5250	11.6604
 0.5240	11.6085
 0.5230	11.5539
 0.5220	11.4980
 0.5210	11.4450
 0.5200	11.3887
 0.5190	11.3335
 0.5180	11.2838
 0.5170	11.2252
 0.5160	11.1744
 0.5150	11.1203
 0.5140	11.0648
 0.5130	11.0122
 0.5120	10.9554
 0.5110	10.8993
 0.5100	10.8533
 0.5090	10.7944
 0.5080	10.7422
 0.5070	10.6871
 0.5060	10.6385
 0.5050	10.5820
 0.5040	10.5334
 0.5030	10.4852
 0.5020	10.4347
 0.5010	10.3865
 0.5000	10.3407
 0.4990	10.2942
 0.4980	10.2490
 0.4970	10.2001
 0.4960	10.1593
 0.4950	10.1203
 0.4940	10.0778
 0.4930	10.0381
 0.4920	10.0039
 0.4910	 9.9683
 0.4900	 9.9317
 0.4890	 9.9015
 0.4880	 9.8689
 0.4870	 9.8350
 0.4860	 9.8107
 0.4850	 9.7800
 0.4840	 9.7558
 0.4830	 9.7327
 0.4820	 9.7171
 0.4810	 9.6977
 0.4800	 9.6825
 0.4790	 9.6611
 0.4780	 9.6451
 0.4770	 9.6329
 0.4760	 9.6180
 0.4750	 9.6000
 0.4740	 9.5831
 0.4730	 9.5692
 0.4720	 9.5528
 0.4710	 9.5383
 0.4700	 9.5214
 0.4690	 9.5056
 0.4680	 9.4924
 0.4670	 9.4753
 0.4660	 9.4647
 0.4650	 9.4451
 0.4640	 9.4266
 0.4630	 9.4048
 0.4620	 9.3812
 0.4610	 9.3700
 0.4600	 9.3495
 0.4590	 9.3269
 0.4580	 9.3058
 0.4570	 9.2850
 0.4560	 9.2592
 0.4550	 9.2325
 0.4540	 9.2107
 0.4530	 9.1758
 0.4520	 9.1468
 0.4510	 9.1208
 0.4500	 9.0837
 0.4490	 9.0507
 0.4480	 9.0108
 0.4470	 8.9785
 0.4460	 8.9621
 0.4450	 8.9227
 0.4440	 8.8869
 0.4430	 8.8465
 0.4420	 8.8112
 0.4410	 8.7764
 0.4400	 8.7383
 0.4390	 8.7040
 0.4380	 8.6656
 0.4370	 8.6279
 0.4360	 8.5950
 0.4350	 8.5561
 0.4340	 8.5208
 0.4330	 8.4847
 0.4320	 8.4524
 0.4310	 8.4174
 0.4300	 8.3816
 0.4290	 8.3547
 0.4280	 8.3191
 0.4270	 8.2920
 0.4260	 8.2602
 0.4250	 8.2248
 0.4240	 8.2021
 0.4230	 8.1717
 0.4220	 8.1458
 0.4210	 8.1234
 0.4200	 8.0925
 0.4190	 8.0728
 0.4180	 8.0492
 0.4170	 8.0268
 0.4160	 8.0077
 0.4150	 7.9851
 0.4140	 7.9626
 0.4130	 7.9438
 0.4120	 7.9249
 0.4110	 7.9076
 0.4100	 7.8871
 0.4090	 7.8694
 0.4080	 7.8471
 0.4070	 7.8264
 0.4060	 7.8100
 0.4050	 7.7909
 0.4040	 7.7678
 0.4030	 7.7441
 0.4020	 7.7254
 0.4010	 7.7023
 0.4000	 7.6783

